Data from lightSpectrum_USB4E013582_11-08-12-683.txt Node
Date: Fri May 03 11:08:12 EDT 2019
User: dh1006
Spectrometer: USB4E01358
Autoset integration time: false
Trigger mode: 4
Integration Time (sec): 3.159300E-1
Scans to average: 10
Electric dark correction enabled: true
Nonlinearity correction enabled: false
Boxcar width: 0
Stray light correction enabled: false
XAxis mode: Wavelengths
Stop averaging: false
Number of Pixels in Spectrum: 3648
>>>>>Begin Spectral Data<<<<<
176.727	-345.32
176.966	-345.32
177.205	-345.32
177.444	-337.13
177.683	-342.25
177.922	428.4
178.161	72.67
178.4	228.52
178.638	135.34
178.877	259.24
179.116	29.25
179.355	347.71
179.593	214.19
179.832	217.67
180.071	321.09
180.309	224.43
180.548	126.33
180.786	176.71
181.025	226.06
181.263	384.17
181.502	458.71
181.74	237.33
181.979	286.89
182.217	412.84
182.456	668.63
182.694	250.03
182.932	281.15
183.17	171.38
183.409	397.48
183.647	211.52
183.885	185.72
184.123	398.09
184.361	416.53
184.6	212.14
184.838	211.32
185.076	404.03
185.314	514.21
185.552	178.76
185.79	284.84
186.028	182.03
186.266	355.09
186.503	109.53
186.741	316.38
186.979	469.77
187.217	317.81
187.455	403.62
187.693	175.68
187.93	323.96
188.168	429.43
188.406	396.46
188.643	117.32
188.881	312.28
189.119	349.76
189.356	277.26
189.594	184.9
189.831	320.68
190.069	481.65
190.306	81.07
190.543	344.44
190.781	241.22
191.018	325.8
191.256	363.89
191.493	170.15
191.73	161.14
191.967	388.88
192.205	266.2
192.442	283.2
192.679	395.64
192.916	261.29
193.153	271.12
193.39	367.37
193.628	535.31
193.865	394
194.102	305.94
194.339	325.19
194.576	317.61
194.813	526.71
195.049	351.4
195.286	103.19
195.523	237.53
195.76	408.54
195.997	336.04
196.234	269.69
196.47	421.65
196.707	178.76
196.944	236.92
197.18	199.24
197.417	120.59
197.654	416.73
197.89	324.37
198.127	433.52
198.363	425.33
198.6	379.87
198.836	461.38
199.073	331.74
199.309	299.38
199.546	345.67
199.782	296.72
200.018	349.76
200.255	319.86
200.491	483.9
200.727	210.91
200.963	249.82
201.199	479.19
201.436	258.22
201.672	199.24
201.908	356.72
202.144	285.46
202.38	207.02
202.616	313.1
202.852	320.07
203.088	251.66
203.324	573.4
203.56	247.36
203.796	387.85
204.032	249.41
204.268	491.07
204.503	267.02
204.739	335.63
204.975	126.74
205.211	327.64
205.446	302.66
205.682	348.33
205.918	554.56
206.153	372.29
206.389	232
206.625	190.43
206.86	269.69
207.096	343.62
207.331	148.24
207.567	226.88
207.802	349.15
208.037	369.22
208.273	303.27
208.508	228.52
208.744	238.35
208.979	74.92
209.214	218.9
209.449	329.69
209.685	267.02
209.92	368.6
210.155	465.27
210.39	271.12
210.625	248.39
210.86	314.74
211.095	385.81
211.33	263.75
211.565	248.18
211.8	246.54
212.035	328.67
212.27	272.35
212.505	341.77
212.74	223.4
212.975	220.94
213.21	383.96
213.444	127.76
213.679	632.79
213.914	152.95
214.149	213.37
214.383	269.07
214.618	256.99
214.853	235.28
215.087	491.69
215.322	308.8
215.556	223.4
215.791	66.32
216.025	290.58
216.26	379.25
216.494	352.01
216.729	220.13
216.963	329.49
217.197	331.74
217.432	356.11
217.666	169.75
217.9	454.62
218.135	254.74
218.369	590.4
218.603	310.65
218.837	178.76
219.071	218.49
219.306	206.81
219.54	295.49
219.774	361.23
220.008	271.94
220.242	137.39
220.476	68.37
220.71	312.08
220.944	128.58
221.178	266.2
221.411	482.06
221.645	120.39
221.879	288.73
222.113	285.25
222.347	209.48
222.58	337.47
222.814	202.31
223.048	467.52
223.281	203.74
223.515	205.38
223.749	266.82
223.982	375.77
224.216	156.02
224.449	323.34
224.683	230.98
224.916	518.72
225.15	370.65
225.383	141.07
225.617	363.28
225.85	242.45
226.083	290.98
226.317	220.53
226.55	274.4
226.783	276.85
227.016	166.67
227.25	243.06
227.483	208.66
227.716	519.54
227.949	229.96
228.182	184.49
228.415	381.91
228.648	477.96
228.881	254.33
229.114	265.59
229.347	500.9
229.58	215.41
229.813	281.97
230.046	416.73
230.279	362.46
230.512	225.04
230.745	545.96
230.977	270.1
231.21	340.96
231.443	367.37
231.675	180.19
231.908	158.07
232.141	480.42
232.373	579.34
232.606	337.27
232.839	228.52
233.071	292.42
233.304	282.18
233.536	286.27
233.769	424.31
234.001	335.43
234.233	293.65
234.466	242.24
234.698	324.57
234.93	400.76
235.163	359.59
235.395	222.58
235.627	141.07
235.86	247.77
236.092	215.82
236.324	330.31
236.556	467.52
236.788	311.26
237.02	395.02
237.252	76.97
237.484	478.58
237.716	173.43
237.948	396.66
238.18	256.17
238.412	423.49
238.644	305.32
238.876	279.52
239.108	259.45
239.34	243.68
239.571	331.53
239.803	222.17
240.035	191.45
240.267	535.31
240.498	227.29
240.73	366.35
240.962	185.92
241.193	309.21
241.425	274.6
241.656	525.89
241.888	313.31
242.119	415.91
242.351	468.75
242.582	631.15
242.814	125.1
243.045	105.85
243.277	265.18
243.508	182.65
243.739	195.75
243.971	313.72
244.202	631.56
244.433	353.45
244.664	264.16
244.896	258.01
245.127	413.45
245.358	588.55
245.589	214.39
245.82	186.33
246.051	279.11
246.282	281.36
246.513	236.71
246.744	298.77
246.975	302.25
247.206	447.24
247.437	204.97
247.668	219.31
247.899	267.84
248.129	326.21
248.36	95.81
248.591	300.2
248.822	191.66
249.052	422.46
249.283	382.73
249.514	426.56
249.744	186.74
249.975	460.15
250.206	269.48
250.436	345.26
250.667	256.17
250.897	303.48
251.128	290.78
251.358	481.65
251.589	427.79
251.819	448.47
252.049	506.43
252.28	181.62
252.51	324.37
252.74	436.6
252.971	215.62
253.201	237.94
253.431	304.71
253.661	412.84
253.891	143.94
254.121	231.18
254.352	371.88
254.582	307.16
254.812	161.35
255.042	150.49
255.272	457.48
255.502	138
255.732	251.25
255.962	409.97
256.192	185.72
256.421	298.77
256.651	332.97
256.881	317.4
257.111	363.89
257.341	398.71
257.57	283.41
257.8	102.37
258.03	277.06
258.259	342.8
258.489	247.98
258.719	279.93
258.948	253.51
259.178	476.33
259.407	328.46
259.637	307.78
259.866	276.65
260.096	238.15
260.325	252.07
260.555	498.24
260.784	400.76
261.013	258.83
261.243	184.49
261.472	315.15
261.701	338.7
261.931	319.04
262.16	269.28
262.389	283
262.618	320.07
262.847	418.57
263.076	222.99
263.305	454.41
263.535	188.79
263.764	290.78
263.993	207.22
264.222	228.52
264.451	398.5
264.679	432.09
264.908	173.02
265.137	279.11
265.366	370.04
265.595	223.61
265.824	263.13
266.053	272.76
266.281	320.68
266.51	333.58
266.739	418.57
266.967	220.53
267.196	454.21
267.425	248.8
267.653	237.33
267.882	104.01
268.11	136.57
268.339	223.2
268.567	255.76
268.796	238.15
269.024	399.12
269.253	433.52
269.481	164.42
269.709	287.91
269.938	247.36
270.166	260.88
270.394	424.1
270.623	439.05
270.851	378.23
271.079	401.37
271.307	326.82
271.535	145.37
271.764	231.59
271.992	508.68
272.22	301.02
272.448	314.74
272.676	295.49
272.904	251.46
273.132	201.69
273.36	102.78
273.588	361.43
273.816	381.51
274.043	240.81
274.271	171.18
274.499	318.22
274.727	365.33
274.955	240.81
275.182	218.49
275.41	358.16
275.638	501.93
275.866	326.82
276.093	463.83
276.321	258.63
276.548	197.6
276.776	141.69
277.003	301.02
277.231	318.02
277.458	254.12
277.686	254.53
277.913	230.36
278.141	266.41
278.368	166.26
278.595	224.22
278.823	146.4
279.05	856.63
279.277	279.52
279.505	146.4
279.732	145.99
279.959	383.76
280.186	392.36
280.413	308.39
280.641	260.27
280.868	451.55
281.095	41.54
281.322	243.27
281.549	202.92
281.776	411.2
282.003	123.67
282.23	283.61
282.457	304.09
282.683	251.87
282.91	204.97
283.137	197.6
283.364	276.85
283.591	235.89
283.818	257.81
284.044	197.6
284.271	284.84
284.498	269.28
284.724	255.96
284.951	142.92
285.178	184.7
285.404	245.32
285.631	218.49
285.857	328.67
286.084	305.12
286.31	380.48
286.537	313.92
286.763	271.32
286.99	338.5
287.216	260.88
287.442	260.06
287.669	253.92
287.895	372.9
288.121	393.79
288.347	351.2
288.574	320.07
288.8	477.55
289.026	335.84
289.252	273.58
289.478	289.76
289.704	172.82
289.931	331.94
290.157	103.6
290.383	259.65
290.609	266.61
290.835	254.53
291.06	283.2
291.286	296.92
291.512	344.23
291.738	602.89
291.964	368.4
292.19	184.29
292.416	246.34
292.641	191.86
292.867	329.69
293.093	323.75
293.319	333.79
293.544	239.17
293.77	211.11
293.995	450.93
294.221	211.11
294.447	295.08
294.672	314.13
294.898	134.32
295.123	246.95
295.349	419.19
295.574	375.57
295.799	121.62
296.025	233.44
296.25	283.61
296.476	182.65
296.701	412.84
296.926	221.15
297.151	276.03
297.377	403.62
297.602	235.28
297.827	156.64
298.052	242.04
298.277	210.91
298.502	134.72
298.727	315.36
298.953	312.49
299.178	369.83
299.403	143.33
299.628	244.91
299.852	446.63
300.077	282.79
300.302	220.94
300.527	208.25
300.752	423.08
300.977	517.08
301.202	170.15
301.426	344.85
301.651	288.73
301.876	160.32
302.101	180.39
302.325	362.25
302.55	338.7
302.775	304.91
302.999	107.28
303.224	299.59
303.448	350.58
303.673	252.07
303.897	342.39
304.122	355.09
304.346	245.52
304.571	169.34
304.795	214.39
305.019	387.85
305.244	162.99
305.468	356.52
305.692	240.81
305.917	343.62
306.141	154.18
306.365	301.43
306.589	381.1
306.813	400.35
307.038	312.9
307.262	250.44
307.486	267.43
307.71	241.63
307.934	356.72
308.158	278.7
308.382	178.96
308.606	433.52
308.83	255.96
309.054	275.42
309.278	235.48
309.502	156.23
309.725	295.08
309.949	384.37
310.173	351.2
310.397	52.81
310.62	181.62
310.844	395.02
311.068	319.25
311.292	121.21
311.515	368.6
311.739	378.23
311.962	242.86
312.186	194.73
312.41	149.06
312.633	340.14
312.857	90.49
313.08	313.31
313.303	213.78
313.527	315.97
313.75	310.85
313.974	329.08
314.197	196.57
314.42	327.64
314.644	285.25
314.867	476.94
315.09	250.03
315.313	378.43
315.536	232.62
315.76	281.77
315.983	382.73
316.206	450.73
316.429	390.11
316.652	103.19
316.875	212.14
317.098	287.5
317.321	236.71
317.544	304.91
317.767	429.02
317.99	270.51
318.213	317.4
318.436	256.78
318.658	243.88
318.881	296.51
319.104	348.94
319.327	205.58
319.55	313.1
319.772	432.7
319.995	295.7
320.218	497.22
320.44	352.63
320.663	432.7
320.885	366.15
321.108	336.65
321.331	370.04
321.553	536.74
321.776	118.96
321.998	253.3
322.22	521.38
322.443	401.37
322.665	424.72
322.888	280.75
323.11	493.32
323.332	149.27
323.555	224.63
323.777	503.36
323.999	179.58
324.221	309.62
324.443	254.74
324.666	363.89
324.888	389.9
325.11	461.38
325.332	303.68
325.554	160.94
325.776	237.53
325.998	528.75
326.22	267.43
326.442	461.38
326.664	125.92
326.886	446.63
327.108	177.32
327.33	296.92
327.551	352.63
327.773	267.43
327.995	281.15
328.217	173.02
328.439	388.47
328.66	328.87
328.882	272.96
329.104	380.89
329.325	236.51
329.547	262.93
329.769	158.07
329.99	391.74
330.212	244.5
330.433	335.63
330.655	331.53
330.876	225.04
331.098	259.04
331.319	282.79
331.54	162.99
331.762	326.62
331.983	307.78
332.204	354.47
332.426	330.31
332.647	331.33
332.868	260.88
333.089	315.97
333.311	416.93
333.532	343
333.753	184.49
333.974	262.11
334.195	262.31
334.416	401.17
334.637	341.57
334.858	297.74
335.079	172.41
335.3	332.97
335.521	275.01
335.742	411.41
335.963	267.84
336.184	355.09
336.405	422.05
336.626	425.33
336.846	353.45
337.067	404.85
337.288	198.83
337.509	333.38
337.729	245.93
337.95	113.63
338.171	266.61
338.391	400.35
338.612	506.64
338.833	255.15
339.053	378.23
339.274	318.02
339.494	314.95
339.715	311.67
339.935	144.35
340.156	473.25
340.376	432.7
340.596	361.84
340.817	374.34
341.037	415.91
341.257	290.37
341.478	209.89
341.698	345.87
341.918	239.38
342.138	273.99
342.359	336.86
342.579	297.33
342.799	208.04
343.019	243.27
343.239	161.96
343.459	213.16
343.679	527.93
343.899	374.13
344.119	227.7
344.339	243.68
344.559	394.41
344.779	105.64
344.999	230.16
345.219	240.4
345.439	536.95
345.658	280.54
345.878	233.03
346.098	397.68
346.318	371.47
346.537	227.5
346.757	439.87
346.977	513.6
347.196	292.62
347.416	240.4
347.636	351.2
347.855	519.95
348.075	409.15
348.294	595.52
348.514	333.58
348.733	617.84
348.953	313.1
349.172	137.8
349.392	354.88
349.611	269.28
349.83	212.14
350.05	461.99
350.269	309.83
350.488	301.22
350.707	392.36
350.927	252.69
351.146	341.16
351.365	201.08
351.584	392.15
351.803	150.29
352.023	255.76
352.242	389.49
352.461	350.79
352.68	268.25
352.899	257.6
353.118	562.14
353.337	472.84
353.556	137.18
353.775	97.66
353.993	184.7
354.212	344.44
354.431	473.46
354.65	345.46
354.869	242.86
355.088	357.13
355.306	123.67
355.525	159.91
355.744	199.03
355.962	354.88
356.181	366.96
356.4	122.23
356.618	173.84
356.837	413.04
357.055	96.84
357.274	315.77
357.492	300.61
357.711	324.37
357.929	225.25
358.148	300
358.366	418.37
358.585	422.87
358.803	528.96
359.021	424.31
359.24	467.93
359.458	369.22
359.676	346.89
359.894	172.2
360.113	208.86
360.331	170.77
360.549	239.38
360.767	333.79
360.985	285.66
361.203	284.84
361.421	266.61
361.639	284.02
361.857	460.56
362.075	484.93
362.293	517.29
362.511	268.46
362.729	429.63
362.947	465.47
363.165	288.53
363.383	169.54
363.601	404.24
363.819	266
364.036	256.78
364.254	135.34
364.472	300.82
364.689	355.7
364.907	338.29
365.125	301.84
365.342	283.82
365.56	349.56
365.778	379.05
365.995	216.23
366.213	289.14
366.43	270.1
366.648	259.65
366.865	411.61
367.083	390.72
367.3	382.94
367.517	531.83
367.735	274.81
367.952	450.11
368.17	540.63
368.387	393.59
368.604	370.04
368.821	217.46
369.039	272.14
369.256	126.12
369.473	326.62
369.69	596.75
369.907	375.16
370.124	355.91
370.341	74.72
370.558	245.11
370.776	503.77
370.993	344.44
371.21	168.31
371.426	188.79
371.643	159.71
371.86	438.44
372.077	320.48
372.294	366.55
372.511	287.91
372.728	229.55
372.945	56.08
373.161	378.23
373.378	299.59
373.595	361.64
373.811	400.76
374.028	281.36
374.245	255.35
374.461	197.19
374.678	414.68
374.895	227.5
375.111	429.84
375.328	221.76
375.544	290.37
375.761	220.13
375.977	311.46
376.194	290.17
376.41	306.34
376.626	356.52
376.843	374.54
377.059	499.67
377.275	201.69
377.492	433.52
377.708	307.16
377.924	289.55
378.14	264.77
378.357	516.26
378.573	372.9
378.789	261.49
379.005	381.51
379.221	442.33
379.437	441.72
379.653	297.33
379.869	333.58
380.085	313.31
380.301	440.08
380.517	335.84
380.733	211.32
380.949	427.79
381.165	341.98
381.381	276.03
381.597	305.32
381.813	447.86
382.028	571.56
382.244	293.03
382.46	386.83
382.676	642.01
382.891	442.33
383.107	184.7
383.323	388.88
383.538	228.73
383.754	677.03
383.969	302.66
384.185	437.62
384.4	376.79
384.616	500.9
384.831	376.59
385.047	456.05
385.262	323.96
385.478	373.93
385.693	348.74
385.909	336.24
386.124	471.62
386.339	278.29
386.554	325.39
386.77	475.1
386.985	266.2
387.2	375.57
387.415	474.28
387.631	344.23
387.846	454.82
388.061	272.55
388.276	504.18
388.491	406.29
388.706	470.18
388.921	471.82
389.136	598.38
389.351	429.02
389.566	554.15
389.781	615.18
389.996	480.22
390.211	423.9
390.426	542.68
390.641	745.84
390.855	391.74
391.07	706.72
391.285	686.45
391.5	739.9
391.714	456.26
391.929	472.43
392.144	551.9
392.358	570.53
392.573	587.74
392.788	559.27
393.002	534.49
393.217	620.09
393.431	589.17
393.646	542.68
393.86	587.74
394.075	650.61
394.289	570.94
394.504	509.91
394.718	863.6
394.933	882.85
395.147	869.54
395.361	610.88
395.576	785.57
395.79	795.4
396.004	722.9
396.218	837.59
396.432	744
396.647	793.56
396.861	686.45
397.075	692.39
397.289	818.34
397.503	684.6
397.717	601.87
397.931	759.97
398.145	770.21
398.359	767.55
398.573	794.79
398.787	821.2
399.001	842.71
399.215	929.13
399.429	996.31
399.643	817.31
399.857	1039.11
400.07	1196.8
400.284	1034.19
400.498	961.69
400.712	1071.88
400.925	1176.94
401.139	972.34
401.353	963.74
401.566	1348.56
401.78	1330.74
401.994	1041.36
402.207	1259.47
402.421	1289.98
402.634	1339.14
402.848	1403.65
403.061	1239.4
403.275	1267.87
403.488	1514.85
403.702	1345.48
403.915	1264.38
404.128	1245.54
404.342	1432.93
404.555	1394.23
404.768	1452.39
404.982	1392.38
405.195	1513.62
405.408	1425.56
405.621	1757.13
405.835	1693.64
406.048	1749.34
406.261	1698.35
406.474	1734.6
406.687	1618.89
406.9	1835.56
407.113	1625.85
407.326	1777.4
407.539	1744.02
407.752	2046.71
407.965	1971.14
408.178	1966.63
408.391	2045.07
408.604	2107.74
408.817	2006.98
409.029	1999.2
409.242	2046.71
409.455	2205.02
409.668	2379.3
409.881	2340.39
410.093	2202.97
410.306	2486
410.519	2434.39
410.731	2412.68
410.944	2305.78
411.157	2491.32
411.369	2641.03
411.582	2842.34
411.794	2873.06
412.007	2848.49
412.219	2712.3
412.432	2836.81
412.644	2904.81
412.857	2890.06
413.069	3074.38
413.281	3019.7
413.494	2932.25
413.706	3035.47
413.918	2885.56
414.131	3269.96
414.343	3147.7
414.555	3008.23
414.767	3011.1
414.979	3073.76
415.192	3374.41
415.404	3643.92
415.616	3371.54
415.828	3383.42
416.04	3699.01
416.252	3479.06
416.464	3406.76
416.676	3491.55
416.888	3643.3
417.1	3629.17
417.312	3601.53
417.524	3880.66
417.736	3842.57
417.948	4015.83
418.159	4122.73
418.371	3649.86
418.583	3828.44
418.795	3737.92
419.007	4118.84
419.218	3960.74
419.43	3852.61
419.642	4170.86
419.853	4103.28
420.065	4052.49
420.276	4172.5
420.488	4294.15
420.7	4143.62
420.911	4102.05
421.123	4310.33
421.334	4113.72
421.546	4094.47
421.757	4388.97
421.969	4278.38
422.18	4547.89
422.391	4520.45
422.603	4405.15
422.814	4597.25
423.025	4849.76
423.237	4618.34
423.448	4736.92
423.659	5151.22
423.87	4893.59
424.082	4843.41
424.293	4788.73
424.504	4845.26
424.715	4735.28
424.926	4908.95
425.137	4824.57
425.348	4938.24
425.559	5041.86
425.77	5092.04
425.981	4686.54
426.192	5076.47
426.403	5068.49
426.614	4859.59
426.825	4960.15
427.036	4974.28
427.247	4612.2
427.458	5263.04
427.668	5080.77
427.879	5152.45
428.09	5147.33
428.301	5177.03
428.511	5201.6
428.722	5161.26
428.933	5445.72
429.143	5045.75
429.354	5050.67
429.565	5480.33
429.775	5342.71
429.986	5179.28
430.196	5076.27
430.407	5051.69
430.617	5083.03
430.828	4957.08
431.038	5146.72
431.249	5285.57
431.459	5155.32
431.669	5006.43
431.88	5065.62
432.09	5036.74
432.3	5461.7
432.511	5439.99
432.721	5225.36
432.931	5417.46
433.141	4940.69
433.351	5142.01
433.562	5658.3
433.772	5495.69
433.982	5302.57
434.192	5103.1
434.402	5259.36
434.612	4953.8
434.822	5298.06
435.032	5081.59
435.242	5195.46
435.452	5336.57
435.662	5095.93
435.872	5286.6
436.082	5166.79
436.292	4806.76
436.502	5091.63
436.711	5331.04
436.921	5007.87
437.131	5182.97
437.341	4910.59
437.551	5290.08
437.76	5208.16
437.97	5125.42
438.18	4950.73
438.389	4890.93
438.599	4902.4
438.808	5107.19
439.018	5251.37
439.228	5155.53
439.437	4887.86
439.647	4832.77
439.856	5153.68
440.066	4855.5
440.275	5135.66
440.484	5166.79
440.694	5071.76
440.903	5220.45
441.113	4689.41
441.322	5051.9
441.531	4691.66
441.741	5067.26
441.95	4787.1
442.159	4878.03
442.368	5153.48
442.577	4767.43
442.787	4784.84
442.996	5050.26
443.205	5054.56
443.414	5177.85
443.623	4941.31
443.832	4732.21
444.041	4828.05
444.25	4638.62
444.459	4726.89
444.668	4745.11
444.877	4627.56
445.086	4485.22
445.295	4563.87
445.504	4764.36
445.713	4729.34
445.922	4754.74
446.13	4634.52
446.339	4610.97
446.548	4381.19
446.757	4501.61
446.965	4460.44
447.174	4702.92
447.383	4399.82
447.591	4447.34
447.8	4111.06
448.009	4672.41
448.217	4465.97
448.426	4646.81
448.634	4463.52
448.843	4787.71
449.051	4399.01
449.26	4474.99
449.468	4382.42
449.677	4507.14
449.885	4400.64
450.093	4511.64
450.302	4312.79
450.51	4797.34
450.719	4282.48
450.927	4514.1
451.135	4545.84
451.343	4293.94
451.552	4523.52
451.76	4232.3
451.968	4412.93
452.176	4218.78
452.384	4190.11
452.592	4354.15
452.8	4586.39
453.009	4397.57
453.217	4635.55
453.425	4283.7
453.633	4377.71
453.841	4717.26
454.049	4674.87
454.257	4567.35
454.464	4119.87
454.672	4407.4
454.88	4426.24
455.088	4437.1
455.296	4175.16
455.504	4216.74
455.711	4158.16
455.919	4416.41
456.127	4357.84
456.335	4616.7
456.542	4480.1
456.75	4453.07
456.958	4415.18
457.165	4677.32
457.373	4407.4
457.581	4359.48
457.788	4405.15
457.996	4235.58
458.203	4242.75
458.411	4426.24
458.618	4078.91
458.826	4044.91
459.033	4637.39
459.24	4466.18
459.448	4589.47
459.655	4835.02
459.863	4668.31
460.07	4541.75
460.277	4439.76
460.484	4676.91
460.692	4463.93
460.899	4475.8
461.106	4105.12
461.313	4815.77
461.52	4393.68
461.728	4348.63
461.935	4737.74
462.142	5085.28
462.349	4507.14
462.556	4541.34
462.763	4330.19
462.97	4507.34
463.177	4258.31
463.384	4585.98
463.591	4681.42
463.798	4457.37
464.005	4616.09
464.212	4465.15
464.418	4484.2
464.625	4577.59
464.832	4452.46
465.039	4476.01
465.246	4630.02
465.452	4944.17
465.659	4756.99
465.866	4827.65
466.072	4688.18
466.279	5083.23
466.486	4785.46
466.692	4657.46
466.899	4864.51
467.105	4978.17
467.312	4809.21
467.519	4819.86
467.725	5013.81
467.931	5003.77
468.138	4818.84
468.344	4750.03
468.551	4617.11
468.757	5012.99
468.964	5253.83
469.17	5016.67
469.376	5124.81
469.583	5235.19
469.789	5124.4
469.995	5347.01
470.201	5237.85
470.408	5467.23
470.614	5416.85
470.82	5560.82
471.026	5552.42
471.232	5375.48
471.438	5305.85
471.644	5671.82
471.85	5744.73
472.056	5715.03
472.262	5965.7
472.468	5707.66
472.674	5941.54
472.88	5807.8
473.086	6139.78
473.292	5838.73
473.498	6220.88
473.704	6214.32
473.91	6063.8
474.116	6344.58
474.321	6157.19
474.527	5961.2
474.733	6471.96
474.939	6495.51
475.144	6190.36
475.35	6311.6
475.556	6606.1
475.761	6458.44
475.967	6657.3
476.173	6684.74
476.378	6905.51
476.584	6887.08
476.789	6801.07
476.995	6695.6
477.2	6667.13
477.406	7065.87
477.611	6913.71
477.817	7157.41
478.022	6979.45
478.227	7405.01
478.433	7178.3
478.638	7295.86
478.843	7501.88
479.049	7506.59
479.254	7893.66
479.459	7354.63
479.664	7801.3
479.87	7851.27
480.075	7698.9
480.28	7807.03
480.485	7766.28
480.69	7642.58
480.895	7928.88
481.1	7954.69
481.306	8081.66
481.511	8231.57
481.716	7972.1
481.921	7950.18
482.126	8179.76
482.33	8316.16
482.535	8304.69
482.74	8271.92
482.945	8761.59
483.15	8674.34
483.355	8658.99
483.56	8816.88
483.765	8737.42
483.969	9050.56
484.174	8856.82
484.379	8966.59
484.583	8940.58
484.788	9016.97
484.993	8930.75
485.197	9101.55
485.402	9185.31
485.607	9197.19
485.811	9209.89
486.016	9287.51
486.22	9155.21
486.425	9610.27
486.629	9652.66
486.834	9628.08
487.038	9479.81
487.243	9569.72
487.447	9505
487.652	10092.56
487.856	9692.39
488.06	9953.92
488.265	10052.22
488.469	10142.12
488.673	10294.9
488.877	9970.91
489.082	9976.03
489.286	10377.85
489.49	10022.11
489.694	10370.88
489.898	10178.78
490.102	10427.82
490.307	10441.54
490.511	10770.85
490.715	10683.61
490.919	10467.55
491.123	10467.14
491.327	10773.51
491.531	10727.64
491.735	11204.2
491.939	10967.87
492.143	11380.94
492.346	10927.52
492.55	10943.7
492.754	11035.45
492.958	11029.51
493.162	10901.92
493.366	11298.61
493.569	11326.46
493.773	11389.34
493.977	11464.91
494.18	11563
494.384	11584.3
494.588	12132.95
494.791	11133.55
494.995	11522.86
495.199	11304.96
495.402	11499.31
495.606	11320.12
495.809	11589.01
496.013	11502.18
496.216	11888.84
496.42	11927.34
496.623	12148.11
496.827	12058
497.03	11817.16
497.233	11768.83
497.437	11981.2
497.64	12060.05
497.843	12411.07
498.047	12302.53
498.25	12431.75
498.453	12469.23
498.656	12548.28
498.86	12500.56
499.063	12804.48
499.266	12605.42
499.469	12684.06
499.672	12422.13
499.875	12883.13
500.078	13108.81
500.281	13123.97
500.484	12934.32
500.687	13121.92
500.89	12913.64
501.093	13182.54
501.296	13058.43
501.499	13481.34
501.702	13333.06
501.905	13397.17
502.108	13179.06
502.311	13438.13
502.514	13150.8
502.716	13408.02
502.919	13487.69
503.122	13881.31
503.325	13801.03
503.527	13793.65
503.73	13676.1
503.933	13901.17
504.135	13783.62
504.338	13833.59
504.541	13869.22
504.743	13928.41
504.946	13762.32
505.148	13847.72
505.351	14242.98
505.553	14529.08
505.756	14320.19
505.958	14281.48
506.161	14561.44
506.363	14902.63
506.565	14615.3
506.768	15027.96
506.97	14883.38
507.172	15127.9
507.375	14787.94
507.577	15109.68
507.779	15240.95
507.982	15491.42
508.184	15313.86
508.386	15581.12
508.588	15274.33
508.79	15526.64
508.993	15367.72
509.195	15574.77
509.397	15645.02
509.599	15651.57
509.801	15789.4
510.003	15958.97
510.205	15966.96
510.407	16062.8
510.609	16283.57
510.811	16687.43
511.013	16628.04
511.215	16874.62
511.417	16839.39
511.618	17220.52
511.82	16828.33
512.022	16948.75
512.224	17042.35
512.426	17643.42
512.627	17162.56
512.829	17107.06
513.031	17299.37
513.233	17640.15
513.434	17298.75
513.636	17668.41
513.838	18126.74
514.039	17882.42
514.241	17975.6
514.442	18228.12
514.644	18433.33
514.845	18291.81
515.047	18451.35
515.248	18909.68
515.45	18826.74
515.651	18884.9
515.853	18859.1
516.054	19172.44
516.256	19371.09
516.457	19643.88
516.658	19129.84
516.86	19370.89
517.061	19547.01
517.262	19209.92
517.463	19615.41
517.665	20015.38
517.866	20061.46
518.067	19952.3
518.268	20346.95
518.469	20590.25
518.67	20796.27
518.872	20641.86
519.073	20432.96
519.274	20608.47
519.475	20375.21
519.676	20783.78
519.877	20996.77
520.078	21659.29
520.279	21373.8
520.48	21905.86
520.681	21627.95
520.881	21910.78
521.082	21643.11
521.283	22508.17
521.484	22344.33
521.685	22846.7
521.886	22710.1
522.086	22773.79
522.287	22639.44
522.488	23151.85
522.689	23138.53
522.889	23355.82
523.09	23146.32
523.291	23221.89
523.491	23520.68
523.692	23740.84
523.892	23776.89
524.093	23806.99
524.294	23896.49
524.494	23918.81
524.695	23376.1
524.895	24110.5
525.096	24061.55
525.296	24286.42
525.496	24532.18
525.697	24770.15
525.897	24411.14
526.098	24799.23
526.298	24466.23
526.498	24633.55
526.699	24870.71
526.899	24717.11
527.099	24402.13
527.299	24856.57
527.499	24900.81
527.7	25068.54
527.9	25098.24
528.1	25771.61
528.3	25517.04
528.5	25955.92
528.7	25733.92
528.9	25940.97
529.1	26244.89
529.3	26845.36
529.5	26532.84
529.7	26793.34
529.9	26319.85
530.1	26659.61
530.3	26316.78
530.5	26699.75
530.7	26972.33
530.9	27123.47
531.1	26755.25
531.3	27399.74
531.499	26904.54
531.699	27130.02
531.899	27084.36
532.099	27100.74
532.298	26994.45
532.498	27506.65
532.698	27263.14
532.897	27580.37
533.097	27367.18
533.297	27776.77
533.496	27568.7
533.696	27939.59
533.895	27577.71
534.095	28477.18
534.294	28160.56
534.494	28936.54
534.693	28675.42
534.893	28730.72
535.092	28664.57
535.292	28735.22
535.491	28776.18
535.69	29633.05
535.89	29093.62
536.089	29529.43
536.288	29204.41
536.488	29548.06
536.687	29691.42
536.886	29358.62
537.085	29629.57
537.285	29996.57
537.484	29876.15
537.683	30363.36
537.882	29887.61
538.081	30384.45
538.28	30146.27
538.479	30146.89
538.678	30206.07
538.877	30998.23
539.076	30652.74
539.275	31214.7
539.474	30821.69
539.673	31206.51
539.872	30993.93
540.071	31664.02
540.27	31451.03
540.469	31931.28
540.668	31089.57
540.867	32251.79
541.065	32115.6
541.264	32855.74
541.463	31897.29
541.662	32331.46
541.861	31869.02
542.059	32128.3
542.258	32368.93
542.457	32470.31
542.655	32152.67
542.854	32467.85
543.052	31627.57
543.251	32452.7
543.45	32425.66
543.648	32379.38
543.847	31956.88
544.045	32650.32
544.244	32383.68
544.442	33153.31
544.641	33197.34
544.839	33690.69
545.037	33332.09
545.236	33919.04
545.434	34026.97
545.632	34402.57
545.831	33912.69
546.029	33807.43
546.227	33698.48
546.426	34508.45
546.624	34118.31
546.822	34812.57
547.02	34626.41
547.218	35360.81
547.417	34872.99
547.615	35409.14
547.813	35233.43
548.011	35831.23
548.209	35865.23
548.407	36204.16
548.605	36346.7
548.803	36265.4
549.001	35954.72
549.199	36429.03
549.397	35800.72
549.595	36366.77
549.793	36148.26
549.991	36483.3
550.189	36689.33
550.387	37138.45
550.584	36929.76
550.782	36502.76
550.98	36195.15
551.178	36993.25
551.376	37014.55
551.573	37102.2
551.771	36789.88
551.969	37237.98
552.166	36998.16
552.364	37033.18
552.562	36989.15
552.759	37710.65
552.957	37652.69
553.154	37846.23
553.352	37661.91
553.55	38716
553.747	37923.03
553.945	37816.33
554.142	37425.16
554.339	37881.66
554.537	37186.78
554.734	37873.46
554.932	37661.29
555.129	38339.79
555.326	38145.84
555.524	37687.1
555.721	37255.59
555.918	37727.44
556.116	38174.31
556.313	38354.33
556.51	38309.07
556.707	38958.07
556.904	39190.72
557.102	39686.33
557.299	39845.25
557.496	39942.73
557.693	40439.98
557.89	40922.07
558.087	40658.29
558.284	40918.38
558.481	39965.87
558.678	40801.65
558.875	40681.84
559.072	40650.92
559.269	41357.26
559.466	41407.85
559.663	40796.73
559.86	41813.76
560.057	41914.72
560.254	42098.22
560.45	41966.74
560.647	41536.26
560.844	40769.91
561.041	41419.52
561.237	41293.57
561.434	41831.57
561.631	41140.38
561.828	41722.21
562.024	41513.93
562.221	42069.34
562.418	41382.04
562.614	41784.27
562.811	42244.65
563.007	42475.05
563.204	42062.79
563.4	41773
563.597	41571.07
563.793	41919.64
563.99	42013.84
564.186	42498.19
564.383	42391.9
564.579	43292.39
564.775	42983.56
564.972	43201.25
565.168	43314.92
565.365	44181.41
565.561	43893.06
565.757	44068.16
565.953	43147.39
566.15	43617.61
566.346	42991.13
566.542	43668.19
566.738	43429.6
566.934	44108.91
567.131	44076.56
567.327	44289.55
567.523	43800.7
567.719	44189.2
567.915	44072.67
568.111	44667.4
568.307	43999.35
568.503	44688.49
568.699	44564.38
568.895	44661.66
569.091	44323.13
569.287	44715.32
569.483	44499.67
569.679	44740.71
569.875	44389.69
570.07	44543.29
570.266	44473.86
570.462	44776.14
570.658	43823.63
570.854	44682.55
571.049	45159.93
571.245	45529.8
571.441	45465.08
571.636	45616.83
571.832	44864.21
572.028	45880
572.223	45622.98
572.419	46416.57
572.615	45778.83
572.81	46195.18
573.006	45735.62
573.201	45972.16
573.397	45918.91
573.592	46153.4
573.788	45302.88
573.983	46257.44
574.179	46627.3
574.374	46475.96
574.569	46572.62
574.765	46542.52
574.96	45579.97
575.156	46535.55
575.351	46007.59
575.546	46895.59
575.741	46508.31
575.937	47010.68
576.132	46648.81
576.327	47183.33
576.522	46069.64
576.718	46039.33
576.913	45841.7
577.108	46105.48
577.303	45820.4
577.498	46501.35
577.693	46274.85
577.888	46468.38
578.083	46164.05
578.278	46104.25
578.473	45713.09
578.668	45454.43
578.863	44706.51
579.058	45200.89
579.253	45101.57
579.448	46541.29
579.643	45897
579.838	46957.43
580.033	46812.85
580.227	46705.33
580.422	46455.68
580.617	47484.99
580.812	47236.98
581.006	47267.29
581.201	47308.87
581.396	47573.67
581.591	46934.7
581.785	47462.46
581.98	47335.9
582.175	48191.75
582.369	47814.71
582.564	47926.12
582.758	47846.87
582.953	47681.6
583.147	47088.09
583.342	47953.77
583.536	47066.59
583.731	47764.33
583.925	47581.04
584.12	48777.26
584.314	48362.75
584.509	48944.17
584.703	48483.17
584.897	48366.64
585.092	47855.47
585.286	47920.8
585.48	48030.57
585.674	48099.59
585.869	48320.36
586.063	48404.32
586.257	47928.79
586.451	48869.01
586.646	48733.43
586.84	49073.81
587.034	48959.94
587.228	49403.32
587.422	48110.65
587.616	48855.08
587.81	48563.86
588.004	49171.08
588.198	48631.85
588.392	49292.32
588.586	48152.22
588.78	49336.56
588.974	48734.46
589.168	49088.96
589.362	49375.88
589.556	49798.38
589.75	49577.61
589.944	50286.41
590.137	50291.32
590.331	50416.25
590.525	49921.87
590.719	50307.3
590.913	49277.37
591.106	49809.64
591.3	49791.82
591.494	50676.14
591.687	50185.24
591.881	50412.36
592.075	49748.61
592.268	50215.34
592.462	49535.83
592.655	49644.16
592.849	49465.79
593.043	49813.53
593.236	49735.91
593.43	49840.16
593.623	50098.2
593.817	50868.85
594.01	50226.2
594.203	50706.45
594.397	49821.11
594.59	51037.4
594.784	49980.44
594.977	50305.66
595.17	50300.95
595.364	50585.62
595.557	50011.16
595.75	50897.11
595.943	50023.65
596.137	50649.1
596.33	49550.37
596.523	50366.69
596.716	49446.95
596.909	49969.59
597.102	49887.26
597.296	51199.19
597.489	51063.82
597.682	51771.8
597.875	51909.83
598.068	51863.34
598.261	51017.94
598.454	51222.74
598.647	50329.01
598.84	51145.94
599.033	50287.43
599.226	50742.7
599.419	49969.59
599.611	50590.94
599.804	50006.25
599.997	50325.11
600.19	50527.66
600.383	50774.85
600.576	51117.68
600.768	50326.34
600.961	49824.8
601.154	50253.03
601.347	49925.76
601.539	50371.19
601.732	49973.48
601.925	50291.73
602.117	49875.79
602.31	50599.75
602.502	50109.26
602.695	50643.37
602.888	50463.15
603.08	50587.87
603.273	50384.3
603.465	50795.74
603.658	50495.3
603.85	50588.89
604.043	49969.79
604.235	49939.89
604.427	49602.8
604.62	50935.61
604.812	51175.02
605.004	51460.3
605.197	51635.4
605.389	51429.58
605.581	50797.17
605.774	51094.74
605.966	50289.07
606.158	50769.11
606.35	50460.48
606.543	51916.39
606.735	51963.49
606.927	51755.21
607.119	51564.75
607.311	51853.1
607.503	51728.38
607.695	51418.52
607.887	51444.12
608.079	53137.18
608.271	52504.77
608.463	53327.23
608.655	52688.67
608.847	53725.36
609.039	53618.86
609.231	53866.67
609.423	53082.91
609.615	53123.66
609.807	52076.74
609.999	52206.99
610.191	51423.44
610.382	51805.18
610.574	51212.29
610.766	51770.98
610.958	51988.68
611.15	52971.91
611.341	52566.82
611.533	53195.75
611.725	52415.48
611.916	52817.7
612.108	52315.33
612.3	52117.91
612.491	52062.82
612.683	52716.73
612.874	51712.82
613.066	53074.51
613.257	53094.38
613.449	54737.67
613.64	54553.76
613.832	54644.28
614.023	54019.04
614.215	53401.98
614.406	52790.66
614.598	52327.62
614.789	51331.9
614.98	51993.18
615.172	51151.06
615.363	52176.89
615.554	51549.39
615.746	52185.08
615.937	52026.77
616.128	52247.75
616.319	51838.15
616.511	51937.89
616.702	51757.46
616.893	51891.2
617.084	51450.88
617.275	52014.69
617.466	51923.96
617.658	51966.77
617.849	51944.65
618.04	52107.67
618.231	52234.64
618.422	52639.32
618.613	52658.98
618.804	52800.9
618.995	53561.93
619.186	54159.53
619.377	53398.71
619.568	53800.11
619.758	52783.29
619.949	53261.29
620.14	52641.98
620.331	54119.18
620.522	53650.4
620.713	54461.4
620.903	54112.01
621.094	53869.12
621.285	53109.53
621.476	53860.32
621.666	53960.46
621.857	55073.33
622.048	55177.98
622.238	55842.75
622.429	56025.43
622.62	55948.43
622.81	55804.86
623.001	56359.45
623.191	56175.14
623.382	56756.35
623.572	56339.18
623.763	56499.94
623.953	55093.2
624.144	56345.53
624.334	55463.88
624.525	56661.53
624.715	56428.47
624.905	57546.25
625.096	56567.73
625.286	56603.78
625.477	56749.59
625.667	57013.98
625.857	57051.05
626.047	58117.43
626.238	57133.38
626.428	58010.32
626.618	56754.92
626.808	57574.51
626.999	56695.73
627.189	57532.94
627.379	57629.4
627.569	58352.54
627.759	58565.12
627.949	59114.59
628.139	59023.25
628.329	59531.55
628.519	58816.81
628.709	59643.99
628.899	58865.14
629.089	60123.42
629.279	58800.43
629.469	59424.03
629.659	58630.86
629.849	59052.74
630.039	58941.74
630.229	60331.9
630.419	59539.74
630.609	59374.88
630.798	59490.39
630.988	59761.13
631.178	59702.97
631.368	60029.41
631.557	59022.63
631.747	59150.63
631.937	59081.2
632.127	59725.91
632.316	59372.02
632.506	61035.17
632.696	60712.41
632.885	60835.09
633.075	60281.11
633.264	59737.78
633.454	59215.35
633.643	59438.98
633.833	58411.52
634.022	59385.12
634.212	58852.04
634.401	59162.71
634.591	59034.1
634.78	59381.64
634.97	58377.11
635.159	59306.28
635.348	58684.31
635.538	58967.13
635.727	59176.64
635.916	59115.82
636.106	58518.01
636.295	58811.69
636.484	58258.33
636.674	58788.55
636.863	57783.82
637.052	57730.16
637.241	57059.04
637.43	57093.65
637.619	55872.04
637.809	56648.22
637.998	57385.69
638.187	57572.26
638.376	58148.35
638.565	58885.21
638.754	58737.15
638.943	59059.7
639.132	58426.06
639.321	59310.78
639.51	57963.22
639.699	57189.91
639.888	56260.33
640.077	56419.66
640.266	55941.46
640.455	56327.71
640.643	55887.19
640.832	57263.43
641.021	57055.76
641.21	57867.78
641.399	57087.51
641.587	58008.27
641.776	57340.84
641.965	56784.41
642.154	56731.57
642.342	56317.88
642.531	56216.71
642.72	56967.7
642.908	56616.68
643.097	56780.72
643.286	56322.59
643.474	56927.97
643.663	56213.84
643.851	55862.41
644.04	55833.54
644.228	56415.98
644.417	55572.21
644.605	55469.82
644.794	54938.98
644.982	56031.78
645.171	55714.55
645.359	56931.66
645.547	56730.14
645.736	57320.98
645.924	56260.33
646.112	56338.56
646.301	56577.15
646.489	56622.21
646.677	56182.1
646.866	56313.99
647.054	55508.93
647.242	55826.98
647.43	55715.78
647.618	56590.06
647.807	55619.52
647.995	55713.32
648.183	54897
648.371	54849.9
648.559	53642.62
648.747	54156.04
648.935	54140.07
649.123	54124.3
649.311	53803.59
649.499	55033.19
649.687	55301.27
649.875	55739.53
650.063	54535.12
650.251	54591.24
650.439	54452.8
650.627	54923.62
650.815	55831.49
651.003	56092.4
651.191	55171.22
651.378	55566.07
651.566	53673.75
651.754	54428.22
651.942	53945.1
652.13	54666.19
652.317	54332.78
652.505	55367.83
652.693	54745.25
652.88	55903.37
653.068	55010.46
653.256	55279.56
653.443	55369.06
653.631	54753.23
653.819	54211.13
654.006	55049.98
654.194	53911.72
654.381	54887.17
654.569	54673.16
654.756	54686.67
654.944	54225.06
655.131	55538.01
655.319	55372.13
655.506	55659.66
655.693	55099.54
655.881	55652.9
656.068	54833.31
656.256	54385.21
656.443	53932.82
656.63	54089.49
656.818	53138.2
657.005	53606.57
657.192	52730.66
657.379	53850.69
657.567	53849.46
657.754	54708.79
657.941	54119.59
658.128	54053.65
658.315	53422.67
658.502	54048.12
658.69	52816.26
658.877	53296.92
659.064	52462.17
659.251	53347.51
659.438	53092.33
659.625	53343.62
659.812	52470.77
659.999	52546.14
660.186	52087.6
660.373	51973.32
660.56	51625.57
660.747	52114.42
660.934	52841.04
661.121	53904.55
661.308	53599
661.494	52849.24
661.681	53558.45
661.868	53307.78
662.055	52143.92
662.242	52942.83
662.428	52348.51
662.615	53568.89
662.802	53969.88
662.989	55212.8
663.175	54434.36
663.362	54744.63
663.549	53308.39
663.735	53009.59
663.922	52229.32
664.109	51999.94
664.295	51684.97
664.482	51806.82
664.668	51475.66
664.855	52620.89
665.041	51972.91
665.228	53570.74
665.414	52918.66
665.601	53586.5
665.787	53409.15
665.974	53374.54
666.16	52885.69
666.347	53515.64
666.533	52591.4
666.719	53812.6
666.906	52874.84
667.092	53269.07
667.278	53347.1
667.465	53708.15
667.651	52442.3
667.837	53349.14
668.023	52601.43
668.21	52461.96
668.396	51547.96
668.582	52291.57
668.768	51854.95
668.954	52100.09
669.14	51404.8
669.327	51259.81
669.513	51325.96
669.699	51995.64
669.885	51405.42
670.071	52653.25
670.257	51805.39
670.443	51744.97
670.629	51673.7
670.815	52244.06
671.001	52093.13
671.187	52747.86
671.373	51679.44
671.559	51946.7
671.744	51536.69
671.93	51492.05
672.116	51657.32
672.302	51610.01
672.488	51149.83
672.674	51984.58
672.859	51233.18
673.045	52013.25
673.231	51587.48
673.417	52210.06
673.602	50889.94
673.788	51020.81
673.974	50551.41
674.159	50695.8
674.345	50391.67
674.531	50616.54
674.716	49940.51
674.902	50444.92
675.087	49319.56
675.273	51060.54
675.459	50367.71
675.644	51085.32
675.83	50375.9
676.015	50939.5
676.2	50186.26
676.386	50698.87
676.571	50613.67
676.757	51502.7
676.942	50491.82
677.128	51117.68
677.313	50169.67
677.498	51242.4
677.684	50369.35
677.869	50040.65
678.054	49189.72
678.24	50073.42
678.425	49547.3
678.61	49612.22
678.795	48542.97
678.98	49403.32
679.166	48572.87
679.351	49305.84
679.536	48877.81
679.721	49903.03
679.906	48813.71
680.091	50079.36
680.276	49705.81
680.461	49894.63
680.647	49291.71
680.832	50225.99
681.017	50027.75
681.202	50549.37
681.387	49615.08
681.572	50141
681.756	49557.74
681.941	50221.9
682.126	50432.02
682.311	50339.86
682.496	49788.14
682.681	49840.56
682.866	49190.74
683.051	49306.25
683.235	48447.95
683.42	50075.26
683.605	50640.5
683.79	50719.14
683.974	49936.82
684.159	50559.61
684.344	49519.65
684.529	49972.25
684.713	49410.08
684.898	49751.07
685.083	49614.06
685.267	49450.22
685.452	49573.51
685.636	49713.18
685.821	49547.71
686.005	49600.54
686.19	49137.29
686.375	49766.43
686.559	49639.45
686.744	49781.17
686.928	49132.79
687.112	49414.59
687.297	48038.97
687.481	48277.35
687.666	47766.79
687.85	48616.9
688.034	47982.24
688.219	49199.96
688.403	47881.89
688.587	48475.18
688.772	47686.31
688.956	47915.27
689.14	47350.64
689.324	47874.51
689.509	47693.68
689.693	48147.71
689.877	47892.95
690.061	48733.43
690.245	48183.35
690.43	47902.78
690.614	47648.83
690.798	47998.83
690.982	48395.72
691.166	48976.94
691.35	48482.56
691.534	49464.15
691.718	48426.65
691.902	49226.99
692.086	48247.25
692.27	48673.22
692.454	48135.63
692.638	48838.9
692.822	49024.24
693.006	49166.58
693.19	49239.08
693.373	49545.04
693.557	48592.94
693.741	48797.74
693.925	47601.32
694.109	47472.5
694.293	46547.23
694.476	46355.95
694.66	45415.52
694.844	46007.79
695.027	45659.64
695.211	46645.73
695.395	46496.85
695.578	47848.1
695.762	46473.7
695.946	47524.52
696.129	47071.71
696.313	47322.38
696.497	46916.88
696.68	47105.5
696.864	46457.73
697.047	46311.51
697.231	45707.35
697.414	45822.45
697.598	45348.35
697.781	45457.3
697.965	44431.88
698.148	44697.91
698.331	43953.88
698.515	45130.65
698.698	44761.6
698.881	45850.92
699.065	45001.42
699.248	46003.49
699.431	45082.52
699.615	45950.45
699.798	44953.5
699.981	45201.51
700.165	44875.26
700.348	45362.68
700.531	44313.1
700.714	44616.4
700.897	43783.29
701.08	44757.1
701.264	44141.27
701.447	44203.33
701.63	44343.61
701.813	45470.61
701.996	44272.55
702.179	44459.73
702.362	43884.66
702.545	43840.63
702.728	43499.44
702.911	43485.72
703.094	43089.03
703.277	43597.74
703.46	42376.33
703.643	43165.42
703.826	42294.41
704.009	43115.85
704.191	42145.53
704.374	42408.28
704.557	42186.49
704.74	43253.68
704.923	42732.68
705.106	42368.35
705.288	42084.91
705.471	42007.08
705.654	42035.76
705.837	41746.17
706.019	41428.53
706.202	41190.35
706.385	40835.44
706.567	41016.48
706.75	40519.85
706.932	41296.44
707.115	40816.6
707.298	41331.46
707.48	41437.34
707.663	41402.32
707.845	40456.16
708.028	40821.52
708.21	40129.92
708.393	40977.37
708.575	40351.1
708.758	40959.75
708.94	40868.41
709.123	41041.47
709.305	41145.91
709.487	41608.96
709.67	40633.92
709.852	40717.89
710.034	40508.18
710.217	40486.67
710.399	39957.27
710.581	40032.43
710.764	40168.62
710.946	40657.68
711.128	40034.07
711.31	40816.8
711.492	40047.38
711.675	40160.23
711.857	39911.19
712.039	40116.6
712.221	39886.41
712.403	39955.02
712.585	39420.7
712.767	39321.58
712.949	38377.88
713.131	38560.15
713.314	38470.45
713.496	38668.9
713.678	38208.31
713.86	38253.57
714.041	37857.9
714.223	38303.74
714.405	37416.97
714.587	37433.36
714.769	36983.21
714.951	37450.15
715.133	36465.9
715.315	36929.76
715.497	37064.52
715.678	37774.96
715.86	37394.24
716.042	37825.54
716.224	37086.22
716.406	37479.64
716.587	37231.02
716.769	36923.62
716.951	36696.5
717.132	36369.64
717.314	36116.92
717.496	36081.7
717.677	35694.43
717.859	36307.59
718.041	36116.92
718.222	36190.65
718.404	34990.54
718.585	35740.1
718.767	34856.6
718.948	35160.52
719.13	34825.47
719.311	35489.63
719.493	34894.9
719.674	34746.22
719.856	34542.03
720.037	34133.46
720.219	34196.34
720.4	34400.52
720.581	33790.63
720.763	34199.61
720.944	34110.53
721.125	34822.2
721.307	34138.38
721.488	34243.64
721.669	33979.66
721.85	34479.98
722.032	34379.83
722.213	34633.58
722.394	34323.31
722.575	34119.74
722.756	33673.9
722.938	33754.38
723.119	33194.47
723.3	32943.18
723.481	32735.52
723.662	32922.09
723.843	32319.99
724.024	32636.81
724.205	32548.95
724.386	32001.32
724.567	31242.55
724.748	31764.17
724.929	31480.32
725.11	31890.12
725.291	31547.08
725.472	32032.25
725.653	31761.51
725.834	32376.92
726.015	31633.92
726.196	31770.31
726.377	31418.68
726.557	31779.12
726.738	31462.5
726.919	31659.11
727.1	31049.02
727.281	31443.25
727.461	30936.58
727.642	30733.43
727.823	30519.82
728.004	30471.49
728.184	30046.95
728.365	30454.9
728.546	30238.64
728.726	30467.39
728.907	29423.14
729.087	30038.35
729.268	29608.68
729.449	29985.51
729.629	29380.74
729.81	29565.67
729.99	29294.32
730.171	29312.75
730.351	28821.85
730.532	28927.94
730.712	28765.94
730.893	29237.79
731.073	28717.61
731.253	28820.01
731.434	28714.95
731.614	28633.64
731.795	27887.77
731.975	28539.44
732.155	27966.42
732.336	28724.98
732.516	28562.17
732.696	28785.19
732.876	28525.51
733.057	28481.07
733.237	27962.32
733.417	28224.05
733.597	27634.03
733.778	27844.97
733.958	27747.08
734.138	27857.87
734.318	27303.28
734.498	27655.12
734.678	27381.72
734.858	27771.65
735.038	27545.35
735.218	27920.95
735.398	27485.96
735.579	27098.69
735.759	26671.69
735.939	26590.59
736.119	26248.58
736.298	26422.25
736.478	26147.82
736.658	26551.47
736.838	26490.24
737.018	26240.18
737.198	25825.88
737.378	26075.73
737.558	25703.61
737.738	25772.84
737.917	25561.28
738.097	25590.98
738.277	25042.53
738.457	24943.82
738.637	24520.71
738.816	24655.05
738.996	24232.76
739.176	24683.11
739.355	24144.29
739.535	24561.67
739.715	24365.27
739.894	24562.28
740.074	24218.02
740.254	24192.21
740.433	23650.73
740.613	23712.17
740.792	23424.43
740.972	24048.04
741.151	23726.1
741.331	23402.31
741.51	22969.78
741.69	23054.98
741.869	22289.86
742.049	22629.41
742.228	22382.42
742.408	22254.43
742.587	21973.85
742.766	22364.4
742.946	22490.15
743.125	22953.19
743.305	22978.38
743.484	23021.8
743.663	22861.85
743.842	22884.79
744.022	22800.21
744.201	22934.35
744.38	22510.22
744.56	22922.27
744.739	22891.14
744.918	22827.04
745.097	22439.36
745.276	22390
745.455	22021.98
745.635	21733.42
745.814	21522.89
745.993	21776.84
746.172	21044.69
746.351	21269.35
746.53	21015.2
746.709	21466.57
746.888	21589.45
747.067	21550.54
747.246	21434.42
747.425	21647
747.604	20922.22
747.783	21125.79
747.962	20733.19
748.141	21053.91
748.32	20780.5
748.499	21006.39
748.677	20638.17
748.856	20930.62
749.035	20698.38
749.214	21027.69
749.393	20687.73
749.572	21232.28
749.75	20492.56
749.929	20771.08
750.108	20377.67
750.287	20791.56
750.465	20278.34
750.644	20612.57
750.823	20900.1
751.001	21393.87
751.18	21192.96
751.359	21453.26
751.537	21029.13
751.716	21313.59
751.894	21007.83
752.073	20947.82
752.251	20858.94
752.43	21098.96
752.609	21011.92
752.787	20939.42
752.966	20566.29
753.144	20825.97
753.322	20539.46
753.501	20414.33
753.679	20243.12
753.858	20766.99
754.036	20470.44
754.215	20733.6
754.393	20301.69
754.571	20614.21
754.75	20270.76
754.928	20491.74
755.106	20340.19
755.284	20447.09
755.463	20269.94
755.641	20702.68
755.819	20445.25
755.997	20191.3
756.176	19900.29
756.354	20612.36
756.532	20332
756.71	20877.37
756.888	20427.84
757.066	20613.8
757.245	20153.41
757.423	20383.81
757.601	19943.29
757.779	20018.04
757.957	19853.18
758.135	19816.52
758.313	19201.72
758.491	19305.35
758.669	19021.09
758.847	19268.49
759.025	19396.28
759.203	19432.12
759.381	19098.3
759.559	19121.65
759.737	18845.17
759.915	19048.13
760.092	18815.68
760.27	19158.92
760.448	18572.59
760.626	18878.76
760.804	18574.84
760.981	18854.59
761.159	18560.09
761.337	18622.15
761.515	18315.98
761.692	18394.41
761.87	18239.38
762.048	18196.79
762.226	17897.17
762.403	18089.27
762.581	17429.82
762.759	17557
762.936	17655.51
763.114	17835.93
763.291	17401.97
763.469	17370.43
763.647	16825.87
763.824	16894.28
764.002	16667.77
764.179	16797.61
764.357	16392.12
764.534	16385.77
764.712	15767.69
764.889	16152.09
765.066	15820.73
765.244	15667.54
765.421	15646.04
765.599	15664.68
765.776	15692.12
765.953	15538.32
766.131	15074.25
766.308	15146.95
766.485	15198.76
766.663	15112.54
766.84	15290.1
767.017	15220.47
767.194	15088.38
767.372	14830.74
767.549	15069.33
767.726	14719.74
767.903	14763.57
768.081	14582.73
768.258	14556.32
768.435	14472.55
768.612	14485.87
768.789	14103.51
768.966	13762.52
769.143	13516.77
769.32	13247.25
769.497	13241.93
769.674	12944.56
769.851	13056.38
770.028	13083.21
770.205	12994.13
770.382	12902.38
770.559	12875.34
770.736	12625.7
770.913	12438.72
771.09	12609.11
771.267	12069.67
771.444	12071.93
771.621	12016.43
771.798	12012.12
771.975	12178.42
772.151	11929.18
772.328	12203.2
772.505	11872.25
772.682	11979.97
772.859	11522.46
773.035	11593.52
773.212	11270.35
773.389	11220.79
773.565	10542.3
773.742	10634.05
773.919	10308.21
774.096	10376.82
774.272	10225.27
774.449	10164.65
774.625	10220.77
774.802	10107.31
774.979	9878.55
775.155	10038.09
775.332	9831.24
775.508	9996.92
775.685	9652.25
775.861	9683.38
776.038	9714.51
776.214	9525.89
776.391	9476.74
776.567	9352.22
776.744	9206.61
776.92	9097.66
777.096	8956.76
777.273	8846.17
777.449	8795.99
777.626	8581.98
777.802	8757.08
777.978	8710.8
778.155	8508.87
778.331	8510.1
778.507	8549.42
778.683	8350.97
778.86	8257.58
779.036	8196.96
779.212	8051.97
779.388	7875.23
779.565	7750.51
779.741	7673.3
779.917	7361.39
780.093	7325.76
780.269	7555.13
780.445	7506.59
780.621	7483.04
780.797	7381.87
780.974	7072.42
781.15	7417.3
781.326	7121.98
781.502	7142.46
781.678	7106.83
781.854	7196.74
782.03	7028.19
782.206	7170.32
782.382	7086.76
782.558	7175.64
782.733	7060.55
782.909	6805.78
783.085	6933.57
783.261	6852.06
783.437	6510.05
783.613	6682.9
783.789	6509.23
783.965	6373.86
784.14	6305.87
784.316	6261.84
784.492	6117.25
784.668	6186.68
784.843	5990.07
785.019	6168.45
785.195	5821.73
785.371	6095.34
785.546	5901.8
785.722	6069.94
785.898	5855.32
786.073	5816.81
786.249	5828.9
786.424	5462.93
786.6	5633.32
786.776	5499.79
786.951	5298.88
787.127	5438.76
787.302	5320.8
787.478	5204.06
787.653	5239.9
787.829	4992.51
788.004	4868.2
788.18	5009.5
788.355	4948.07
788.531	4815.15
788.706	4900.35
788.881	4819.45
789.057	4798.97
789.232	4604.83
789.408	4722.58
789.583	4584.55
789.758	4671.59
789.934	4781.36
790.109	4519.22
790.284	4497.51
790.459	4529.67
790.635	4635.96
790.81	4673.02
790.985	4443.24
791.16	4291.49
791.336	4371.36
791.511	4259.74
791.686	4267.53
791.861	4198.92
792.036	3996.17
792.211	4036.31
792.387	3996.58
792.562	5156.55
792.737	4185.81
792.912	3892.75
793.087	3770.89
793.262	3755.94
793.437	4021.16
793.612	3864.49
793.787	3848.51
793.962	3819.64
794.137	3462.47
794.312	3712.94
794.487	3651.91
794.662	3702.9
794.837	3452.23
795.011	3519.81
795.186	3400.83
795.361	3338.57
795.536	3349.63
795.711	3576.54
795.886	3252.76
796.06	3379.53
796.235	3216.71
796.41	3230.64
796.585	3191.32
796.76	3106.53
796.934	3215.89
797.109	3130.49
797.284	3157.12
797.458	3266.89
797.633	3094.86
797.808	3018.67
797.982	3135.41
798.157	2975.87
798.332	2945.36
798.506	2938.19
798.681	2833.54
798.855	2740.97
799.03	2907.26
799.204	2715.58
799.379	2885.35
799.553	2719.47
799.728	2842.34
799.902	2644.1
800.077	2794.63
800.251	2812.65
800.426	2906.24
800.6	2697.76
800.775	2787.66
800.949	2647.17
801.123	2831.29
801.298	2675.84
801.472	2728.27
801.647	2650.86
801.821	2734.21
801.995	2773.74
802.169	2521.43
802.344	2536.38
802.518	2793.19
802.692	2476.78
802.867	2449.13
803.041	2307.62
803.215	2581.64
803.389	2490.91
803.563	2410.43
803.737	3266.68
803.912	2526.96
804.086	2492.55
804.26	2576.11
804.434	2276.7
804.608	2505.04
804.782	2273.01
804.956	2301.48
805.13	2176.55
805.304	2308.23
805.478	2411.04
805.652	2307.41
805.826	2265.02
806	2166.72
806.174	2430.09
806.348	2232.87
806.522	2191.09
806.696	2299.43
806.87	2240.04
807.044	2181.26
807.218	2094.43
807.392	2478.42
807.566	2302.5
807.739	2196.21
807.913	2133.95
808.087	2212.8
808.261	2084.19
808.435	2309.87
808.608	2101.39
808.782	2079.07
808.956	2217.3
809.13	2132.52
809.303	1944.31
809.477	2114.5
809.651	1961.51
809.824	2093.61
809.998	2010.66
810.172	1996.94
810.345	2200.1
810.519	1971.34
810.692	1876.11
810.866	2186.79
811.04	2081.32
811.213	2079.48
811.387	2144.81
811.56	2213.82
811.734	2064.94
811.907	1992.85
812.081	2020.29
812.254	2092.17
812.428	2087.26
812.601	1971.34
812.774	2061.66
812.948	1948.2
813.121	1814.67
813.295	1939.8
813.468	2014.96
813.641	1915.64
813.815	1981.17
813.988	1938.58
814.161	1866.28
814.335	2292.06
814.508	1958.65
814.681	1937.14
814.854	2034.22
815.028	1907.86
815.201	1992.85
815.374	2050.8
815.547	2027.46
815.72	1960.28
815.894	2056.33
816.067	1918.51
816.24	1871.61
816.413	1925.26
816.586	1893.11
816.759	1885.53
816.932	2124.12
817.105	2026.64
817.278	2005.34
817.452	1970.73
817.625	2164.26
817.798	2027.25
817.971	2248.43
818.144	2135.39
818.317	1849.9
818.49	1958.65
818.662	2140.92
818.835	2000.22
819.008	1973.39
819.181	1943.9
819.354	1953.32
819.527	2013.33
819.7	2036.88
819.873	2051.21
820.046	1988.96
820.218	1956.19
820.391	1940.42
820.564	1918.51
820.737	1984.25
820.909	1925.67
821.082	1968.89
821.255	2065.96
821.428	2049.58
821.6	1922.19
821.773	2016.4
821.946	2122.28
822.118	1906.42
822.291	2088.49
822.464	1966.02
822.636	1999.81
822.809	1880.41
822.982	1998.17
823.154	2016.4
823.327	1894.13
823.499	1999.61
823.672	1883.28
823.844	1812.01
824.017	2095.25
824.189	1961.72
824.362	2053.67
824.534	1965.81
824.707	1937.14
824.879	2062.27
825.052	2160.37
825.224	1975.85
825.396	2123.3
825.569	2299.43
825.741	2097.7
825.914	1995.92
826.086	2025.41
826.258	2090.74
826.431	1970.32
826.603	2116.95
826.775	1950.45
826.947	1872.63
827.12	1779.65
827.292	1950.25
827.464	1849.28
827.636	1903.56
827.809	1858.91
827.981	1829.42
828.153	1912.98
828.325	1919.94
828.497	1888.2
828.669	1861.16
828.842	1927.31
829.014	1823.48
829.186	1831.47
829.358	2016.81
829.53	1986.91
829.702	1933.46
829.874	1795.63
830.046	1769
830.218	1811.81
830.39	1903.97
830.562	1758.56
830.734	1927.52
830.906	2102.41
831.078	1818.16
831.25	1835.36
831.422	1793.99
831.594	2045.27
831.766	2062.68
831.937	1574.24
832.109	1720.88
832.281	1805.46
832.453	1786.62
832.625	1747.3
832.797	1831.88
832.968	1777.81
833.14	1818.56
833.312	1817.13
833.484	1852.97
833.655	1829.42
833.827	1759.17
833.999	1733.57
834.171	1643.87
834.342	1899.25
834.514	1875.5
834.686	1737.26
834.857	1844.37
835.029	1840.07
835.2	1782.73
835.372	1685.45
835.544	1750.57
835.715	1846.21
835.887	1733.37
836.058	1727.02
836.23	1770.23
836.401	1769.82
836.573	1894.54
836.744	1669.88
836.916	1764.29
837.087	1862.39
837.259	1772.49
837.43	1697.94
837.602	1667.22
837.773	1840.07
837.945	1746.68
838.116	1735.01
838.287	1775.35
838.459	1718.01
838.63	1929.97
838.801	1650.63
838.973	1691.59
839.144	1564
839.315	1849.28
839.487	1527.75
839.658	1651.45
839.829	1593.49
840	1773.3
840.172	1502.36
840.343	1696.92
840.514	1609.88
840.685	1449.93
840.856	1551.1
841.027	1581.41
841.199	1634.04
841.37	1604.35
841.541	1658
841.712	1583.66
841.883	1804.02
842.054	1627.08
842.225	1537.79
842.396	1492.32
842.567	1712.89
842.738	1692
842.909	1487.82
843.08	1556.22
843.251	1680.53
843.422	1528.98
843.593	1525.91
843.764	1634.86
843.935	1718.01
844.106	1568.71
844.277	1578.75
844.448	1557.86
844.619	1550.69
844.79	1866.49
844.96	1455.46
845.131	1504.41
845.302	1648.58
845.473	1374.16
845.644	1416.75
845.814	1495.8
845.985	1712.48
846.156	1618.48
846.327	1504
846.497	1368.83
846.668	1492.73
846.839	1479.22
847.01	1347.94
847.18	1478.6
847.351	1483.31
847.522	1253.33
847.692	1283.84
847.863	1331.97
848.033	1406.1
848.204	1451.77
848.375	1331.15
848.545	1294.9
848.716	1567.69
848.886	1329.1
849.057	1482.08
849.227	1337.5
849.398	1488.23
849.568	1466.11
849.739	1489.25
849.909	1324.39
850.08	1309.03
850.25	1332.58
850.421	1319.68
850.591	1270.32
850.761	1305.96
850.932	1364.33
851.102	1159.32
851.272	1221.79
851.443	1404.67
851.613	1422.49
851.783	1352.65
851.954	1299.81
852.124	1342.41
852.294	1319.27
852.465	1233.66
852.635	1217.49
852.805	1447.88
852.975	1533.69
853.145	1254.55
853.316	1387.47
853.486	1212.98
853.656	1266.23
853.826	1194.14
853.996	1122.66
854.166	1221.17
854.337	1389.31
854.507	1145.4
854.677	1116.73
854.847	1300.22
855.017	1176.32
855.187	1095.63
855.357	1121.85
855.527	1234.89
855.697	1256.4
855.867	1251.48
856.037	1024.77
856.207	1233.87
856.377	1126.56
856.547	1160.55
856.717	991.8
856.887	1107.71
857.057	1488.23
857.227	976.24
857.397	1131.47
857.566	1326.23
857.736	1166.7
857.906	967.22
858.076	1075.77
858.246	1201.51
858.416	1178.16
858.585	875.07
858.755	929.34
858.925	1097.07
859.095	961.69
859.264	1039.93
859.434	1088.67
859.604	1117.95
859.774	1098.5
859.943	980.13
860.113	947.36
860.283	1176.32
860.452	876.7
860.622	935.07
860.791	940.6
860.961	1246.57
861.131	1029.89
861.3	913.77
861.47	1039.72
861.639	901.69
861.809	1043.61
861.978	1014.74
862.148	874.25
862.318	943.26
862.487	1088.67
862.657	864.62
862.826	788.64
862.995	877.73
863.165	1149.29
863.334	967.22
863.504	888.58
863.673	883.05
863.843	860.32
864.012	1098.5
864.181	905.17
864.351	881.41
864.52	931.59
864.689	801.95
864.859	805.03
865.028	1082.12
865.197	640.78
865.366	776.15
865.536	816.9
865.705	718.81
865.874	936.1
866.043	735.8
866.213	793.76
866.382	902.92
866.551	858.68
866.72	796.01
866.889	845.57
867.059	909.47
867.228	965.79
867.397	828.99
867.566	804.21
867.735	1021.29
867.904	915
868.073	878.96
868.242	775.53
868.411	970.5
868.58	780.65
868.749	745.84
868.918	787.82
869.087	890.02
869.256	1035.42
869.425	961.49
869.594	679.28
869.763	954.12
869.932	727.82
870.101	768.16
870.27	696.48
870.439	1049.96
870.608	903.53
870.777	692.8
870.945	770.41
871.114	699.35
871.283	1066.96
871.452	568.48
871.621	708.16
871.789	801.34
871.958	689.11
872.127	665.15
872.296	809.74
872.464	857.66
872.633	823.25
872.802	698.74
872.971	879.98
873.139	825.5
873.308	879.37
873.477	915.41
873.645	712.05
873.814	745.02
873.983	915.21
874.151	751.78
874.32	747.48
874.488	900.46
874.657	725.36
874.826	634.84
874.994	683.79
875.163	813.63
875.331	682.56
875.5	701.81
875.668	652.66
875.837	919.51
876.005	851.92
876.174	829.6
876.342	763.25
876.51	549.85
876.679	745.43
876.847	621.53
877.016	683.99
877.184	765.09
877.352	771.44
877.521	792.74
877.689	618.46
877.857	570.33
878.026	805.43
878.194	730.48
878.362	775.53
878.531	674.16
878.699	682.56
878.867	567.87
879.036	606.99
879.204	640.57
879.372	771.44
879.54	649.38
879.708	617.23
879.877	807.28
880.045	770.82
880.213	574.83
880.381	694.23
880.549	782.5
880.717	738.06
880.885	646.1
881.054	520.77
881.222	676.41
881.39	599.82
881.558	594.9
881.726	703.45
881.894	686.45
882.062	661.67
882.23	432.09
882.398	777.58
882.566	754.44
882.734	688.5
882.902	614.97
883.07	728.23
883.238	534.69
883.406	672.11
883.574	595.72
883.741	609.24
883.909	836.77
884.077	748.5
884.245	613.13
884.413	531.42
884.581	592.65
884.749	728.43
884.916	500.7
885.084	494.76
885.252	939.78
885.42	711.84
885.587	533.05
885.755	676.62
885.923	688.91
886.091	866.67
886.258	505.41
886.426	692.59
886.594	428.81
886.761	705.49
886.929	756.69
887.097	606.37
887.264	913.77
887.432	799.7
887.6	555.17
887.767	534.9
887.935	708.36
888.102	733.14
888.27	617.84
888.438	732.73
888.605	562.96
888.773	771.03
888.94	521.18
889.108	412.43
889.275	610.67
889.443	726.59
889.61	615.18
889.778	605.76
889.945	735.6
890.112	580.36
890.28	513.8
890.447	554.76
890.615	508.27
890.782	869.95
890.949	550.46
891.117	580.57
891.284	463.83
891.452	724.74
891.619	596.95
891.786	502.74
891.953	773.08
892.121	761.61
892.288	499.67
892.455	398.09
892.623	490.25
892.79	483.29
892.957	510.53
893.124	523.43
893.291	555.99
893.459	687.88
893.626	499.88
893.793	500.08
893.96	735.6
894.127	905.58
894.294	448.27
894.461	442.74
894.629	545.34
894.796	565.41
894.963	548
895.13	676.41
895.297	555.99
895.464	501.11
895.631	551.9
895.798	491.69
895.965	1377.43
896.132	906.81
896.299	532.24
896.466	579.54
896.633	587.74
896.8	619.48
896.967	498.65
897.134	410.18
897.301	760.99
897.467	505
897.634	475.92
897.801	590.19
897.968	456.67
898.135	694.43
898.302	424.72
898.469	493.53
898.635	534.08
898.802	492.71
898.969	530.8
899.136	507.86
899.303	745.02
