Data from transmission_Transmission_11-09-34-813.txt Node
Date: Fri May 03 11:09:34 EDT 2019
User: dh1006
Spectrometer: USB4E01358
Autoset integration time: false
Trigger mode: 4
Integration Time (sec): 3.159300E-1
Scans to average: 10
Electric dark correction enabled: true
Nonlinearity correction enabled: false
Boxcar width: 0
Stray light correction enabled: false
XAxis mode: Wavelengths
Stop averaging: false
Number of Pixels in Spectrum: 3648
>>>>>Begin Spectral Data<<<<<
176.727	43.93
176.966	43.93
177.205	43.93
177.444	308.89
177.683	-61.19
177.922	67.57
178.161	221.61
178.4	2702.22
178.638	8.87
178.877	-5.04
179.116	343.72
179.355	-1325.71
179.593	125.6
179.832	48.5
180.071	119.98
180.309	-8.74
180.548	55.81
180.786	136.72
181.025	54.7
181.263	48.4
181.502	33
181.74	72.61
181.979	18.11
182.217	50.7
182.456	61.44
182.694	75.26
182.932	26.66
183.17	43.9
183.409	42.75
183.647	65.55
183.885	48.58
184.123	85.71
184.361	74.06
184.6	27.79
184.838	65.46
185.076	-150.78
185.314	18.55
185.552	72.3
185.79	30
186.028	40.46
186.266	128.91
186.503	33.92
186.741	92.96
186.979	56.8
187.217	47.92
187.455	58.33
187.693	73.58
187.93	49.91
188.168	59.92
188.406	87.91
188.643	34.48
188.881	55.66
189.119	33.32
189.356	-2.55
189.594	14.47
189.831	57.32
190.069	55.93
190.306	29.7
190.543	36.61
190.781	-10.04
191.018	35.39
191.256	29.97
191.493	37.04
191.73	52.87
191.967	40.95
192.205	-2.6
192.442	87.07
192.679	60.65
192.916	63.66
193.153	32.62
193.39	52.05
193.628	18.15
193.865	57.85
194.102	38.72
194.339	41.97
194.576	29.44
194.813	32.5
195.049	70.59
195.286	33.61
195.523	49.4
195.76	7.54
195.997	32.71
196.234	63.85
196.47	39.54
196.707	57.81
196.944	55.07
197.18	68.61
197.417	37.73
197.654	41.29
197.89	31.13
198.127	55.49
198.363	56.9
198.6	58.75
198.836	96.18
199.073	30.73
199.309	62.61
199.546	6.25
199.782	84.36
200.018	113.02
200.255	41.59
200.491	54.29
200.727	46.31
200.963	48.37
201.199	63.39
201.436	35.59
201.672	60.47
201.908	50.74
202.144	108.43
202.38	41.69
202.616	29.91
202.852	47.23
203.088	16.45
203.324	41.91
203.56	59.18
203.796	19.33
204.032	17.37
204.268	0.8
204.503	32.68
204.739	87.82
204.975	22.11
205.211	35.22
205.446	15.01
205.682	49.68
205.918	74.09
206.153	39.8
206.389	-3.88
206.625	85.91
206.86	29.2
207.096	16.97
207.331	66.52
207.567	90.49
207.802	39.92
208.037	69.13
208.273	36.21
208.508	78.62
208.744	15.94
208.979	44.98
209.214	74.02
209.449	22.48
209.685	53.47
209.92	-3.57
210.155	75.65
210.39	53.63
210.625	30.14
210.86	43.27
211.095	10.26
211.33	42.78
211.565	37.39
211.8	45.26
212.035	60.19
212.27	31.67
212.505	63.15
212.74	62.97
212.975	15.75
213.21	57.11
213.444	57.21
213.679	44.85
213.914	5.52
214.149	29.05
214.383	88.03
214.618	21.78
214.853	37.61
215.087	42.54
215.322	56.33
215.556	63.94
215.791	56.3
216.025	12.14
216.26	65.86
216.494	44.21
216.729	56.39
216.963	61.21
217.197	44.16
217.432	51.26
217.666	14.4
217.9	3.73
218.135	45.76
218.369	50.15
218.603	55.81
218.837	81.63
219.071	38.61
219.306	40.75
219.54	76.71
219.774	33.32
220.008	30.46
220.242	31.76
220.476	25.12
220.71	61.75
220.944	-13.65
221.178	61.77
221.411	36.25
221.645	12.47
221.879	57.09
222.113	34.66
222.347	62.15
222.58	44.76
222.814	44.75
223.048	-41.29
223.281	45.05
223.515	51.38
223.749	38.56
223.982	34.94
224.216	80.49
224.449	39.25
224.683	36.06
224.916	28.36
225.15	73.92
225.383	13.96
225.617	69.03
225.85	-13.49
226.083	40.97
226.317	51.17
226.55	41.57
226.783	65.99
227.016	31.94
227.25	38.14
227.483	9.13
227.716	58.25
227.949	42.99
228.182	37.3
228.415	31.26
228.648	17.46
228.881	28.92
229.114	76.19
229.347	23.46
229.58	51.86
229.813	46.08
230.046	16.48
230.279	20.32
230.512	78.21
230.745	62.37
230.977	70.64
231.21	103.2
231.443	36.31
231.675	63
231.908	48
232.141	64.72
232.373	35.83
232.606	57.15
232.839	75.66
233.071	27.72
233.304	23.54
233.536	47.09
233.769	44.31
234.001	31.36
234.233	66.76
234.466	28.31
234.698	47.74
234.93	41.62
235.163	22.35
235.395	53.28
235.627	42.15
235.86	42.19
236.092	47.72
236.324	38.71
236.556	50.71
236.788	47.27
237.02	34.05
237.252	49.53
237.484	58.4
237.716	23.75
237.948	80.83
238.18	17.48
238.412	37.8
238.644	26.6
238.876	29.53
239.108	23.52
239.34	30.87
239.571	51.22
239.803	46.04
240.035	61.71
240.267	40.41
240.498	30.11
240.73	43.6
240.962	61.12
241.193	23.03
241.425	51.53
241.656	38.99
241.888	45.23
242.119	35.06
242.351	27.47
242.582	30.64
242.814	56.04
243.045	33.79
243.277	31.78
243.508	45.41
243.739	14.5
243.971	0.46
244.202	38.07
244.433	44.59
244.664	49.05
244.896	58.61
245.127	18.52
245.358	55.61
245.589	54.61
245.82	66.8
246.051	21.21
246.282	36.76
246.513	67.23
246.744	75.28
246.975	5.55
247.206	47.53
247.437	64.1
247.668	8.72
247.899	69.39
248.129	52.25
248.36	21.9
248.591	86.23
248.822	44.98
249.052	67.83
249.283	30.38
249.514	35.73
249.744	46.22
249.975	57.97
250.206	77.76
250.436	23.59
250.667	24.68
250.897	52.25
251.128	49.37
251.358	23.09
251.589	33.9
251.819	56.41
252.049	46.87
252.28	26.26
252.51	26.71
252.74	61.63
252.971	46.92
253.201	38.8
253.431	55.74
253.661	-14.75
253.891	39.86
254.121	39.03
254.352	47.56
254.582	21.26
254.812	13.2
255.042	32.74
255.272	92.27
255.502	46.42
255.732	53.33
255.962	70.75
256.192	71.14
256.421	67.14
256.651	53.82
256.881	58.96
257.111	27.34
257.341	89.47
257.57	58.02
257.8	60.69
258.03	16.8
258.259	30.44
258.489	63.31
258.719	22.46
258.948	69.54
259.178	39.39
259.407	50.16
259.637	39.46
259.866	38.19
260.096	46.27
260.325	27.9
260.555	75.96
260.784	43.04
261.013	29.96
261.243	-12.28
261.472	-7.63
261.701	50.54
261.931	26.53
262.16	47.43
262.389	61.86
262.618	30.51
262.847	40.68
263.076	32.42
263.305	25.23
263.535	33.88
263.764	67.57
263.993	50.72
264.222	47.97
264.451	55.03
264.679	87.79
264.908	58.81
265.137	55.23
265.366	69.93
265.595	17.93
265.824	38.65
266.053	34.66
266.281	33.68
266.51	48.02
266.739	47.63
266.967	45.78
267.196	18.98
267.425	15.37
267.653	20.92
267.882	57.69
268.11	46.67
268.339	39.56
268.567	95.3
268.796	39.69
269.024	58.82
269.253	67.77
269.481	63.62
269.709	64.65
269.938	63.66
270.166	57.48
270.394	47.62
270.623	23.2
270.851	86.96
271.079	42.04
271.307	25.26
271.535	47.95
271.764	41.61
271.992	57.46
272.22	15.06
272.448	64.99
272.676	24.81
272.904	65.52
273.132	57.47
273.36	68.56
273.588	61.78
273.816	12.25
274.043	63.08
274.271	29.98
274.499	65.8
274.727	48.06
274.955	8.81
275.182	38.68
275.41	33.4
275.638	33.57
275.866	53.94
276.093	37.64
276.321	47.34
276.548	36.09
276.776	57.75
277.003	13.76
277.231	-8.6
277.458	44.32
277.686	67.89
277.913	75.08
278.141	63.02
278.368	12.07
278.595	45.58
278.823	42.48
279.05	27.14
279.277	27.68
279.505	22.9
279.732	36.09
279.959	64.94
280.186	59.08
280.413	72.16
280.641	38.12
280.868	42.28
281.095	32.46
281.322	47.86
281.549	48.76
281.776	43.34
282.003	33.9
282.23	43.61
282.457	68.6
282.683	45.12
282.91	68.13
283.137	21.1
283.364	62.26
283.591	17.88
283.818	67.03
284.044	34.92
284.271	26.29
284.498	41.82
284.724	57.78
284.951	55.25
285.178	39.43
285.404	47.29
285.631	32.26
285.857	58.19
286.084	62.74
286.31	44.31
286.537	22.39
286.763	40.04
286.99	34.06
287.216	40.82
287.442	43.74
287.669	66.44
287.895	48.93
288.121	62.21
288.347	38.79
288.574	25.75
288.8	57.17
289.026	35.46
289.252	38.53
289.478	56.32
289.704	45.92
289.931	74.65
290.157	45.26
290.383	60.32
290.609	49.07
290.835	11.05
291.06	75.14
291.286	75.52
291.512	31.81
291.738	46.61
291.964	43.55
292.19	60.31
292.416	25.31
292.641	24.42
292.867	74.91
293.093	92.17
293.319	30.28
293.544	28.61
293.77	37.65
293.995	53.41
294.221	36.76
294.447	54.41
294.672	35.57
294.898	27.98
295.123	60.62
295.349	52.19
295.574	69.01
295.799	26.43
296.025	37.88
296.25	55.12
296.476	35.89
296.701	71.14
296.926	44.24
297.151	69.22
297.377	49.59
297.602	12.19
297.827	25.03
298.052	50.4
298.277	59.19
298.502	27.77
298.727	40.01
298.953	71.12
299.178	4.61
299.403	46.6
299.628	43.3
299.852	65.78
300.077	63.21
300.302	34.14
300.527	33.61
300.752	62.36
300.977	45.68
301.202	48.41
301.426	35.43
301.651	59.61
301.876	38.76
302.101	23.95
302.325	59.15
302.55	46.06
302.775	35.7
302.999	58.22
303.224	44.29
303.448	53
303.673	20.28
303.897	37.64
304.122	49.25
304.346	59.81
304.571	50.23
304.795	43.42
305.019	59.9
305.244	31.28
305.468	40.22
305.692	48.1
305.917	6.58
306.141	80.04
306.365	29.74
306.589	29.53
306.813	49.02
307.038	24.87
307.262	22.26
307.486	39.71
307.71	28.33
307.934	55.75
308.158	36.73
308.382	48.29
308.606	32.34
308.83	42.97
309.054	35.44
309.278	46.52
309.502	47.85
309.725	48.08
309.949	24.56
310.173	46.39
310.397	46.52
310.62	59.66
310.844	54.62
311.068	56.89
311.292	4.02
311.515	84.39
311.739	29.2
311.962	35.14
312.186	57.44
312.41	41.94
312.633	48.18
312.857	25.6
313.08	31.58
313.303	40.01
313.527	57.31
313.75	36.09
313.974	42.58
314.197	55.24
314.42	56.65
314.644	45.03
314.867	51.59
315.09	62.97
315.313	36.96
315.536	69.79
315.76	33.53
315.983	33.06
316.206	43.54
316.429	28.85
316.652	41.72
316.875	41.8
317.098	37.05
317.321	48.88
317.544	27.96
317.767	6.29
317.99	32.48
318.213	55.26
318.436	13.09
318.658	31.46
318.881	36.63
319.104	39
319.327	44.25
319.55	47.09
319.772	36.55
319.995	25.57
320.218	47.61
320.44	46.43
320.663	59.56
320.885	52.11
321.108	46.86
321.331	22.06
321.553	48.81
321.776	43.46
321.998	48.19
322.22	61.4
322.443	59.84
322.665	45.59
322.888	48.09
323.11	5.21
323.332	66.95
323.555	49.03
323.777	44.24
323.999	48.72
324.221	56.98
324.443	38.56
324.666	57.39
324.888	23.69
325.11	32.3
325.332	43.72
325.554	55.31
325.776	79.39
325.998	29.8
326.22	32.67
326.442	43.14
326.664	29.5
326.886	38.91
327.108	58.12
327.33	55.49
327.551	48.74
327.773	32.56
327.995	45.9
328.217	37.69
328.439	56.39
328.66	26.84
328.882	46.62
329.104	68.43
329.325	34.1
329.547	56.78
329.769	55.7
329.99	53.03
330.212	39.62
330.433	9.19
330.655	39.36
330.876	20.39
331.098	33.19
331.319	39.94
331.54	30.46
331.762	55.5
331.983	60.78
332.204	40.7
332.426	42.17
332.647	23.16
332.868	46.22
333.089	68.27
333.311	42.07
333.532	44.16
333.753	53.93
333.974	30.42
334.195	56.44
334.416	51.3
334.637	32.92
334.858	-5.44
335.079	27.58
335.3	44.65
335.521	62.02
335.742	32.58
335.963	30.82
336.184	24.84
336.405	44.15
336.626	23.05
336.846	46.8
337.067	35.22
337.288	18.84
337.509	36.38
337.729	51.89
337.95	42.96
338.171	48.36
338.391	37.39
338.612	15.22
338.833	40.97
339.053	31.28
339.274	56.07
339.494	25.26
339.715	29.75
339.935	44.6
340.156	39.94
340.376	36.77
340.596	47.55
340.817	34.55
341.037	51.71
341.257	8.75
341.478	47.88
341.698	66.24
341.918	50.77
342.138	68.13
342.359	55.16
342.579	45.48
342.799	44.5
343.019	43.9
343.239	57.14
343.459	17.06
343.679	45.93
343.899	48.25
344.119	77.2
344.339	51.29
344.559	29.62
344.779	35.22
344.999	31.78
345.219	59.99
345.439	16.52
345.658	46.82
345.878	44.36
346.098	21.33
346.318	51.24
346.537	58.77
346.757	54.23
346.977	26.37
347.196	31.43
347.416	37.88
347.636	54.13
347.855	50.18
348.075	32.18
348.294	42.42
348.514	30.21
348.733	47.14
348.953	76.6
349.172	47.03
349.392	30.37
349.611	32.24
349.83	39.07
350.05	36.95
350.269	27.87
350.488	50.04
350.707	43.36
350.927	44.89
351.146	38.71
351.365	36.33
351.584	53.54
351.803	12.07
352.023	37.93
352.242	43.35
352.461	41.35
352.68	48.47
352.899	13.16
353.118	28.9
353.337	30.06
353.556	55.06
353.775	49.83
353.993	9.41
354.212	2.38
354.431	63.47
354.65	32.19
354.869	30.38
355.088	51.02
355.306	17.42
355.525	55.15
355.744	30.91
355.962	49.39
356.181	61.8
356.4	35.81
356.618	46.65
356.837	46.32
357.055	47.8
357.274	8.08
357.492	50.04
357.711	51.39
357.929	36.53
358.148	31.05
358.366	45.26
358.585	29.26
358.803	17.99
359.021	32.49
359.24	65.57
359.458	40.01
359.676	42.12
359.894	38.69
360.113	44.32
360.331	53.25
360.549	46.32
360.767	33.96
360.985	61.59
361.203	66.22
361.421	53.09
361.639	32.41
361.857	25.01
362.075	44.74
362.293	41.4
362.511	35.85
362.729	39.23
362.947	43.49
363.165	44.73
363.383	45.92
363.601	52.79
363.819	25.32
364.036	27.3
364.254	32.06
364.472	41.14
364.689	62.6
364.907	39.98
365.125	57.97
365.342	47.65
365.56	73.21
365.778	23.67
365.995	41.25
366.213	43.84
366.43	6.33
366.648	28.38
366.865	58.31
367.083	51.93
367.3	43.26
367.517	26.25
367.735	37.93
367.952	47.85
368.17	67.79
368.387	32.89
368.604	42.25
368.821	51.77
369.039	23.02
369.256	37.18
369.473	57.76
369.69	53.53
369.907	41.12
370.124	42.08
370.341	29.28
370.558	30.96
370.776	55.47
370.993	29.91
371.21	38.2
371.426	32.28
371.643	24.37
371.86	42.64
372.077	36.31
372.294	35.06
372.511	24.58
372.728	36.04
372.945	32.79
373.161	38.7
373.378	25.71
373.595	30.8
373.811	20.52
374.028	54.71
374.245	44.92
374.461	21.98
374.678	28.5
374.895	35.28
375.111	32.34
375.328	37.03
375.544	21.49
375.761	51.08
375.977	41.39
376.194	32.87
376.41	59.04
376.626	28.37
376.843	37.82
377.059	32.33
377.275	22.15
377.492	15.7
377.708	20.82
377.924	37.66
378.14	26
378.357	31.07
378.573	27.48
378.789	43.37
379.005	32.38
379.221	29.74
379.437	22.93
379.653	31.89
379.869	33.12
380.085	22.51
380.301	47.91
380.517	45.74
380.733	38.44
380.949	38.76
381.165	47.99
381.381	27.21
381.597	10.84
381.813	33.59
382.028	34.33
382.244	38.7
382.46	29.22
382.676	26.08
382.891	34.91
383.107	27.69
383.323	30.41
383.538	20.2
383.754	23.71
383.969	19.35
384.185	32.22
384.4	29.43
384.616	39
384.831	23.85
385.047	29.69
385.262	21.5
385.478	25.32
385.693	18.47
385.909	35.39
386.124	29.73
386.339	15.71
386.554	35.32
386.77	36.37
386.985	25.78
387.2	26.87
387.415	32.74
387.631	22.53
387.846	13.22
388.061	23.5
388.276	15.61
388.491	22.83
388.706	26.84
388.921	24.86
389.136	25.57
389.351	17.95
389.566	20.5
389.781	21.93
389.996	26.37
390.211	27.28
390.426	22.65
390.641	24.82
390.855	18.52
391.07	23.37
391.285	22.96
391.5	26.01
391.714	21.71
391.929	18.43
392.144	23.81
392.358	16.95
392.573	21.81
392.788	16.02
393.002	19.78
393.217	16.29
393.431	16.71
393.646	22.83
393.86	14.78
394.075	14.61
394.289	17.25
394.504	20.77
394.718	12.61
394.933	16.21
395.147	15.64
395.361	22.76
395.576	23.42
395.79	17.11
396.004	18.83
396.218	18.06
396.432	11.05
396.647	11.16
396.861	8.54
397.075	15.31
397.289	14
397.503	14.58
397.717	14.29
397.931	15.29
398.145	12.39
398.359	14.66
398.573	12.42
398.787	10.7
399.001	12.11
399.215	13.46
399.429	10.15
399.643	10.68
399.857	13.64
400.07	12.21
400.284	15.61
400.498	7.1
400.712	12.08
400.925	13.57
401.139	12.75
401.353	13.94
401.566	9.17
401.78	10.81
401.994	12.79
402.207	10.22
402.421	10.96
402.634	8.6
402.848	14.37
403.061	11.47
403.275	11.93
403.488	7.14
403.702	11.88
403.915	12.05
404.128	11.6
404.342	10.01
404.555	8.15
404.768	10.66
404.982	10.14
405.195	10.73
405.408	8.46
405.621	11.35
405.835	9.23
406.048	10.7
406.261	9.87
406.474	10.52
406.687	9.38
406.9	9.7
407.113	10.06
407.326	9.27
407.539	9.84
407.752	10.74
407.965	7.09
408.178	9.23
408.391	9.71
408.604	8.55
408.817	10.14
409.029	8.81
409.242	8.73
409.455	9.92
409.668	10.06
409.881	8.53
410.093	9.07
410.306	9.28
410.519	9.07
410.731	9.26
410.944	9.02
411.157	9.67
411.369	9.17
411.582	9.54
411.794	9.66
412.007	8.49
412.219	6.61
412.432	9.57
412.644	10.32
412.857	8.23
413.069	9.03
413.281	9.76
413.494	9.47
413.706	7.99
413.918	8.73
414.131	9.55
414.343	7.85
414.555	8.77
414.767	8.93
414.979	9.14
415.192	8.05
415.404	10.17
415.616	8.73
415.828	8.42
416.04	9.4
416.252	9.68
416.464	8.96
416.676	9.24
416.888	9.83
417.1	9.42
417.312	9.93
417.524	9.96
417.736	9.06
417.948	10.03
418.159	9.53
418.371	10.05
418.583	10.46
418.795	9.41
419.007	9.58
419.218	11.32
419.43	10.79
419.642	9.72
419.853	9.94
420.065	9.58
420.276	10.67
420.488	10.33
420.7	10.09
420.911	9.82
421.123	10.51
421.334	10.5
421.546	10.9
421.757	10.8
421.969	10.34
422.18	10.92
422.391	10.56
422.603	10.28
422.814	11.84
423.025	11.2
423.237	11.24
423.448	12.43
423.659	11.3
423.87	11.05
424.082	11.18
424.293	12.33
424.504	12.1
424.715	12.27
424.926	12.07
425.137	13.37
425.348	12.32
425.559	12.56
425.77	12.56
425.981	12.3
426.192	12.49
426.403	13.76
426.614	13.37
426.825	13.71
427.036	13.13
427.247	13.97
427.458	13.42
427.668	14.14
427.879	13.81
428.09	14.78
428.301	13.98
428.511	14.65
428.722	14.82
428.933	14.42
429.143	15.82
429.354	14.87
429.565	15.59
429.775	15.9
429.986	15.66
430.196	16.08
430.407	16.37
430.617	16.74
430.828	17.11
431.038	17.06
431.249	17.16
431.459	18.18
431.669	18.03
431.88	18.31
432.09	18.69
432.3	18.35
432.511	19.3
432.721	20.03
432.931	19.67
433.141	19.97
433.351	20.87
433.562	20.68
433.772	21.67
433.982	21.57
434.192	22.06
434.402	22.3
434.612	22.31
434.822	23.5
435.032	23.47
435.242	23.89
435.452	24.2
435.662	24.25
435.872	24.41
436.082	24.43
436.292	26.2
436.502	26
436.711	26.15
436.921	26.59
437.131	27.77
437.341	28.01
437.551	28.71
437.76	29.29
437.97	30.19
438.18	30.42
438.389	30.82
438.599	32.19
438.808	32.44
439.018	33.86
439.228	33.68
439.437	34.14
439.647	34.79
439.856	35.13
440.066	36.65
440.275	37.85
440.484	38.28
440.694	38.21
440.903	39.43
441.113	39.96
441.322	40.48
441.531	41.96
441.741	42.62
441.95	43.61
442.159	44.07
442.368	44.09
442.577	46.08
442.787	45.52
442.996	47.84
443.205	47.95
443.414	48.88
443.623	48.53
443.832	50.32
444.041	50.37
444.25	52.02
444.459	53.13
444.668	53.19
444.877	53.8
445.086	54.99
445.295	55.25
445.504	56.59
445.713	56.94
445.922	57.75
446.13	58.57
446.339	58.87
446.548	59.11
446.757	60.11
446.965	58.7
447.174	61.36
447.383	61.56
447.591	61.54
447.8	62.64
448.009	62.35
448.217	62.43
448.426	62.23
448.634	61.32
448.843	62.69
449.051	64.23
449.26	63.38
449.468	63.93
449.677	64.01
449.885	63.99
450.093	65.45
450.302	64.54
450.51	64.18
450.719	62.84
450.927	63.49
451.135	63.69
451.343	62.11
451.552	61.92
451.76	61.41
451.968	59.97
452.176	60.62
452.384	60.23
452.592	60.27
452.8	58.98
453.009	58.46
453.217	56.73
453.425	56.27
453.633	56.09
453.841	55.62
454.049	53.47
454.257	53.37
454.464	52.43
454.672	51.81
454.88	50.91
455.088	50.91
455.296	50.03
455.504	48.17
455.711	47.88
455.919	48.05
456.127	46.86
456.335	46.2
456.542	45.68
456.75	44.35
456.958	43.31
457.165	43.38
457.373	42.26
457.581	41.1
457.788	40.73
457.996	40.54
458.203	38.87
458.411	38.8
458.618	37.97
458.826	37.81
459.033	36.74
459.24	36.85
459.448	35.35
459.655	33.95
459.863	34.27
460.07	33.87
460.277	33.87
460.484	31.65
460.692	32.39
460.899	31.55
461.106	30.41
461.313	29.58
461.52	29.8
461.728	29.59
461.935	29.03
462.142	28.02
462.349	27.16
462.556	27.64
462.763	27.18
462.97	26.8
463.177	26.46
463.384	26.36
463.591	25.5
463.798	25.07
464.005	24.43
464.212	24.69
464.418	23.74
464.625	23.46
464.832	22.39
465.039	22.99
465.246	22.5
465.452	21.27
465.659	21.18
465.866	21.15
466.072	20.87
466.279	19.56
466.486	20.39
466.692	19.91
466.899	19.69
467.105	19.45
467.312	18.88
467.519	19.86
467.725	19.15
467.931	17.85
468.138	18.87
468.344	18.22
468.551	17.02
468.757	17.34
468.964	17.21
469.17	17.23
469.376	17.5
469.583	16.47
469.789	16.13
469.995	16.2
470.201	15.64
470.408	16.35
470.614	15.16
470.82	15.1
471.026	14.94
471.232	15
471.438	15.01
471.644	14.74
471.85	14.83
472.056	14.23
472.262	14.17
472.468	14.65
472.674	13.52
472.88	14.08
473.086	13.91
473.292	13.52
473.498	13.36
473.704	13.48
473.91	13.39
474.116	13.25
474.321	12.91
474.527	13.24
474.733	12.4
474.939	12.7
475.144	12.39
475.35	11.86
475.556	11.69
475.761	12.14
475.967	11.89
476.173	11.8
476.378	11.77
476.584	12.03
476.789	11.51
476.995	11.2
477.2	11.51
477.406	11.29
477.611	11.3
477.817	11.53
478.022	10.68
478.227	11.2
478.433	10.41
478.638	10.67
478.843	10.45
479.049	10.43
479.254	10.4
479.459	10.41
479.664	9.69
479.87	9.65
480.075	10.11
480.28	10.12
480.485	9.87
480.69	10.13
480.895	9.88
481.1	9.46
481.306	10.06
481.511	9.75
481.716	9.42
481.921	9.63
482.126	9.42
482.33	9.88
482.535	9.49
482.74	9.3
482.945	9.27
483.15	9
483.355	8.93
483.56	9.04
483.765	8.97
483.969	8.66
484.174	8.93
484.379	8.9
484.583	8.64
484.788	8.79
484.993	8.39
485.197	8.91
485.402	8.42
485.607	8.69
485.811	8.91
486.016	8.72
486.22	7.9
486.425	8.48
486.629	8.33
486.834	8.4
487.038	8.54
487.243	8.13
487.447	7.85
487.652	8.41
487.856	7.86
488.06	7.78
488.265	8.09
488.469	8.07
488.673	8.16
488.877	7.97
489.082	7.76
489.286	7.67
489.49	7.65
489.694	7.75
489.898	7.82
490.102	7.63
490.307	7.43
490.511	7.4
490.715	7.55
490.919	7.54
491.123	7.61
491.327	7.35
491.531	7.5
491.735	7.62
491.939	7.25
492.143	7.27
492.346	7.39
492.55	7.58
492.754	7.09
492.958	7.07
493.162	7.65
493.366	7.15
493.569	7.34
493.773	7.48
493.977	7.05
494.18	7.37
494.384	7.04
494.588	7.06
494.791	7.04
494.995	7.19
495.199	7.29
495.402	7.14
495.606	6.97
495.809	7.28
496.013	7.01
496.216	7.22
496.42	7.16
496.623	6.74
496.827	7.05
497.03	6.96
497.233	6.58
497.437	7
497.64	6.78
497.843	7.02
498.047	6.66
498.25	6.75
498.453	6.57
498.656	6.75
498.86	6.71
499.063	6.98
499.266	6.65
499.469	6.72
499.672	6.89
499.875	6.88
500.078	6.53
500.281	6.57
500.484	6.99
500.687	6.51
500.89	6.74
501.093	6.88
501.296	6.47
501.499	6.73
501.702	6.61
501.905	6.88
502.108	6.8
502.311	6.51
502.514	6.66
502.716	6.54
502.919	6.66
503.122	6.67
503.325	6.9
503.527	6.68
503.73	6.77
503.933	6.43
504.135	6.34
504.338	6.5
504.541	6.76
504.743	6.43
504.946	5.95
505.148	6.7
505.351	6.1
505.553	6.47
505.756	6.5
505.958	6.45
506.161	6.63
506.363	6.45
506.565	6.66
506.768	6.26
506.97	6.35
507.172	6.55
507.375	6.58
507.577	6.65
507.779	6.68
507.982	6.51
508.184	6.56
508.386	6.8
508.588	6.77
508.79	6.46
508.993	6.59
509.195	6.62
509.397	6.46
509.599	6.64
509.801	6.71
510.003	6.72
510.205	6.35
510.407	6.71
510.609	6.53
510.811	6.59
511.013	6.56
511.215	6.4
511.417	6.63
511.618	6.67
511.82	6.69
512.022	6.28
512.224	6.8
512.426	6.58
512.627	6.56
512.829	6.52
513.031	6.64
513.233	6.66
513.434	6.65
513.636	6.65
513.838	6.7
514.039	6.6
514.241	6.71
514.442	6.8
514.644	6.6
514.845	6.62
515.047	6.8
515.248	6.68
515.45	6.61
515.651	6.67
515.853	6.71
516.054	6.73
516.256	6.65
516.457	6.82
516.658	6.62
516.86	6.9
517.061	6.69
517.262	6.96
517.463	6.78
517.665	6.78
517.866	6.78
518.067	6.83
518.268	6.81
518.469	6.74
518.67	6.89
518.872	6.74
519.073	6.83
519.274	6.95
519.475	6.75
519.676	7.09
519.877	6.93
520.078	6.82
520.279	7.13
520.48	6.98
520.681	6.86
520.881	6.99
521.082	7.12
521.283	6.92
521.484	7.02
521.685	7.14
521.886	7.25
522.086	7.08
522.287	7.04
522.488	7.29
522.689	7.1
522.889	7.05
523.09	7.22
523.291	7.1
523.491	6.98
523.692	7.27
523.892	7.17
524.093	7.22
524.294	7.21
524.494	7.32
524.695	7.31
524.895	7.27
525.096	7.4
525.296	7.48
525.496	7.45
525.697	7.43
525.897	7.49
526.098	7.53
526.298	7.7
526.498	7.48
526.699	7.52
526.899	7.52
527.099	7.79
527.299	7.65
527.499	7.59
527.7	7.69
527.9	7.55
528.1	7.82
528.3	7.77
528.5	7.76
528.7	7.98
528.9	7.7
529.1	7.96
529.3	7.98
529.5	7.91
529.7	7.88
529.9	8
530.1	8.17
530.3	8.13
530.5	7.94
530.7	8.02
530.9	8.1
531.1	7.97
531.3	8.12
531.499	8.23
531.699	8.11
531.899	8.14
532.099	8.14
532.298	8.23
532.498	8.32
532.698	8.51
532.897	8.33
533.097	8.38
533.297	8.44
533.496	8.36
533.696	8.53
533.895	8.47
534.095	8.64
534.294	8.56
534.494	8.65
534.693	8.57
534.893	8.67
535.092	8.83
535.292	8.82
535.491	8.8
535.69	9.05
535.89	8.93
536.089	8.96
536.288	8.88
536.488	9
536.687	9
536.886	9.06
537.085	9.06
537.285	9.12
537.484	9.11
537.683	9.12
537.882	9.35
538.081	9.32
538.28	9.28
538.479	9.41
538.678	9.51
538.877	9.4
539.076	9.55
539.275	9.67
539.474	9.55
539.673	9.55
539.872	9.59
540.071	9.65
540.27	9.85
540.469	9.97
540.668	9.92
540.867	9.96
541.065	9.9
541.264	10.05
541.463	10.05
541.662	9.91
541.861	10.34
542.059	10.27
542.258	10.23
542.457	10.36
542.655	10.52
542.854	10.5
543.052	10.6
543.251	10.74
543.45	10.73
543.648	10.86
543.847	10.72
544.045	10.84
544.244	10.9
544.442	10.95
544.641	10.95
544.839	11.11
545.037	10.99
545.236	11.12
545.434	11.16
545.632	11.11
545.831	11.25
546.029	11.16
546.227	11.46
546.426	11.4
546.624	11.3
546.822	11.41
547.02	11.54
547.218	11.6
547.417	11.73
547.615	11.92
547.813	11.91
548.011	12.04
548.209	12.08
548.407	12.1
548.605	12.03
548.803	12.21
549.001	12.25
549.199	12.36
549.397	12.39
549.595	12.41
549.793	12.52
549.991	12.63
550.189	12.65
550.387	12.74
550.584	12.79
550.782	12.79
550.98	12.94
551.178	13.02
551.376	13.05
551.573	13.22
551.771	13.4
551.969	13.53
552.166	13.54
552.364	13.58
552.562	13.67
552.759	13.78
552.957	13.79
553.154	13.83
553.352	14.01
553.55	14.21
553.747	14.14
553.945	14.35
554.142	14.44
554.339	14.59
554.537	14.59
554.734	14.75
554.932	14.84
555.129	14.88
555.326	14.97
555.524	15.11
555.721	15.26
555.918	15.3
556.116	15.55
556.313	15.65
556.51	15.51
556.707	15.6
556.904	15.68
557.102	15.98
557.299	16.04
557.496	15.96
557.693	16.03
557.89	16.05
558.087	16.27
558.284	16.15
558.481	16.32
558.678	16.39
558.875	16.51
559.072	16.59
559.269	16.59
559.466	16.65
559.663	16.86
559.86	17.02
560.057	17.13
560.254	17.2
560.45	17.4
560.647	17.69
560.844	17.87
561.041	17.99
561.237	18.24
561.434	18.29
561.631	18.33
561.828	18.57
562.024	18.7
562.221	18.99
562.418	18.81
562.614	18.87
562.811	18.97
563.007	19.43
563.204	19.47
563.4	19.45
563.597	19.73
563.793	19.87
563.99	19.97
564.186	19.93
564.383	19.99
564.579	20.17
564.775	20.33
564.972	20.59
565.168	20.7
565.365	20.8
565.561	20.92
565.757	21.11
565.953	21.38
566.15	21.55
566.346	21.78
566.542	22.02
566.738	22.26
566.934	22.32
567.131	22.42
567.327	22.44
567.523	22.66
567.719	22.74
567.915	22.97
568.111	23
568.307	23.03
568.503	23.43
568.699	23.65
568.895	23.79
569.091	24.05
569.287	24.13
569.483	24.33
569.679	24.32
569.875	24.37
570.07	24.64
570.266	24.8
570.462	24.95
570.658	24.99
570.854	25.25
571.049	25.43
571.245	25.4
571.441	25.61
571.636	25.84
571.832	26.1
572.028	26.46
572.223	26.34
572.419	26.63
572.615	26.78
572.81	27.29
573.006	27.42
573.201	27.75
573.397	27.75
573.592	28.06
573.788	28.18
573.983	28.48
574.179	28.3
574.374	28.42
574.569	28.36
574.765	28.78
574.96	28.93
575.156	29
575.351	29.33
575.546	29.45
575.741	30.07
575.937	30.26
576.132	30.64
576.327	30.81
576.522	30.89
576.718	31.15
576.913	31.43
577.108	31.63
577.303	31.68
577.498	32.25
577.693	32.4
577.888	32.77
578.083	33.14
578.278	33.23
578.473	33.66
578.668	33.78
578.863	33.88
579.058	34.21
579.253	34.36
579.448	34.49
579.643	34.78
579.838	35.04
580.033	35.41
580.227	35.49
580.422	35.77
580.617	35.51
580.812	35.76
581.006	35.74
581.201	36.03
581.396	36.24
581.591	36.84
581.785	37.29
581.98	37.42
582.175	37.97
582.369	38.08
582.564	38.35
582.758	38.65
582.953	38.87
583.147	39.07
583.342	39.26
583.536	39.43
583.731	39.83
583.925	40.27
584.12	40.53
584.314	40.59
584.509	40.63
584.703	40.72
584.897	40.99
585.092	41.62
585.286	41.74
585.48	41.79
585.674	42.22
585.869	42.61
586.063	42.89
586.257	43.1
586.451	43.32
586.646	43.67
586.84	43.8
587.034	43.87
587.228	44.2
587.422	44.57
587.616	45.33
587.81	45.62
588.004	45.75
588.198	45.99
588.392	45.92
588.586	45.99
588.78	46.13
588.974	46.28
589.168	46.41
589.362	46.77
589.556	46.97
589.75	47.57
589.944	47.53
590.137	47.69
590.331	47.95
590.525	47.92
590.719	48.55
590.913	49.01
591.106	49.07
591.3	49.19
591.494	49.31
591.687	49.45
591.881	49.6
592.075	50.02
592.268	50.27
592.462	50.67
592.655	50.78
592.849	51.33
593.043	51.29
593.236	51.75
593.43	51.89
593.623	52.15
593.817	52.61
594.01	52.8
594.203	53.12
594.397	53.27
594.59	53.5
594.784	53.86
594.977	53.74
595.17	54.12
595.364	54.58
595.557	54.85
595.75	54.96
595.943	55.19
596.137	55.06
596.33	55.35
596.523	55.92
596.716	56.14
596.909	56.54
597.102	57.03
597.296	57.02
597.489	57.09
597.682	56.88
597.875	57.34
598.068	57.67
598.261	58.08
598.454	58.51
598.647	58.41
598.84	59.03
599.033	59.51
599.226	59.99
599.419	60.31
599.611	60.55
599.804	60.55
599.997	60.87
600.19	60.73
600.383	60.88
600.576	61.09
600.768	61.13
600.961	61.29
601.154	61.36
601.347	61.73
601.539	62.05
601.732	62.27
601.925	62.33
602.117	62.77
602.31	62.55
602.502	62.43
602.695	62.64
602.888	63.06
603.08	62.66
603.273	63.23
603.465	63.24
603.658	63.2
603.85	63.19
604.043	63.56
604.235	64.31
604.427	64.84
604.62	65.08
604.812	65.4
605.004	65.19
605.197	65.17
605.389	65.03
605.581	64.84
605.774	64.92
605.966	65.03
606.158	65.13
606.35	65.21
606.543	65.47
606.735	65.59
606.927	65.83
607.119	65.87
607.311	65.59
607.503	65.65
607.695	65.78
607.887	65.99
608.079	65.79
608.271	65.89
608.463	66.24
608.655	66.86
608.847	67.42
609.039	67.31
609.231	67.39
609.423	67.26
609.615	67.06
609.807	66.71
609.999	66.82
610.191	67.02
610.382	67.45
610.574	67.78
610.766	67.79
610.958	68.28
611.15	67.97
611.341	67.57
611.533	67.2
611.725	66.94
611.916	67.19
612.108	67.58
612.3	67.84
612.491	68.25
612.683	68.22
612.874	68.45
613.066	68.73
613.257	68.73
613.449	68.84
613.64	68.71
613.832	68.64
614.023	68.47
614.215	68.51
614.406	69.02
614.598	69.25
614.789	69.46
614.98	69.1
615.172	69.84
615.363	69.85
615.554	69.43
615.746	69.22
615.937	68.79
616.128	68.76
616.319	68.58
616.511	68.87
616.702	68.81
616.893	68.56
617.084	68.7
617.275	68.68
617.466	69.05
617.658	69.4
617.849	69.34
618.04	68.92
618.231	68.85
618.422	68.84
618.613	69.24
618.804	69.83
618.995	69.81
619.186	69.74
619.377	69.29
619.568	69.21
619.758	69.51
619.949	69.65
620.14	70.01
620.331	69.98
620.522	69.77
620.713	69.81
620.903	69.58
621.094	69.95
621.285	70.01
621.476	70.17
621.666	70.02
621.857	69.72
622.048	70
622.238	70.47
622.429	70.27
622.62	69.66
622.81	69.36
623.001	69.35
623.191	69.35
623.382	69.64
623.572	69.85
623.763	69.84
623.953	69.48
624.144	69.7
624.334	69.83
624.525	70.06
624.715	69.82
624.905	69.76
625.096	69.73
625.286	69.84
625.477	69.6
625.667	69.52
625.857	69.56
626.047	69.59
626.238	69.68
626.428	69.91
626.618	69.9
626.808	69.85
626.999	69.95
627.189	69.95
627.379	70.1
627.569	70.24
627.759	70.49
627.949	70.32
628.139	70.41
628.329	70.37
628.519	69.97
628.709	69.95
628.899	69.61
629.089	69.31
629.279	69.09
629.469	69.22
629.659	69.11
629.849	69.37
630.039	69.31
630.229	69.07
630.419	69.27
630.609	69.31
630.798	69.64
630.988	70.14
631.178	69.66
631.368	69.25
631.557	69.22
631.747	68.94
631.937	69.3
632.127	69.33
632.316	69.6
632.506	69.27
632.696	69.52
632.885	69.64
633.075	69.62
633.264	69.57
633.454	69.47
633.643	69.28
633.833	68.85
634.022	68.9
634.212	69.28
634.401	69.73
634.591	69.82
634.78	69.81
634.97	69.49
635.159	69.48
635.348	69.19
635.538	69.2
635.727	68.8
635.916	68.9
636.106	68.59
636.295	68.37
636.484	68.3
636.674	68.62
636.863	68.91
637.052	68.89
637.241	68.96
637.43	69.15
637.619	69.38
637.809	69.42
637.998	69.42
638.187	69.85
638.376	69.52
638.565	69.8
638.754	69.53
638.943	69.2
639.132	68.87
639.321	69.16
639.51	68.25
639.699	68.67
639.888	68.77
640.077	69.45
640.266	69.6
640.455	69.77
640.643	69.43
640.832	69.36
641.021	68.87
641.21	68.85
641.399	68.11
641.587	68.31
641.776	67.82
641.965	67.84
642.154	67.95
642.342	67.98
642.531	68.09
642.72	67.76
642.908	67.52
643.097	67.44
643.286	68.16
643.474	68.21
643.663	68.53
643.851	68.46
644.04	68.57
644.228	68.53
644.417	68.39
644.605	68.88
644.794	68.79
644.982	69.16
645.171	69.09
645.359	69.02
645.547	68.94
645.736	68.93
645.924	68.81
646.112	68.49
646.301	68.2
646.489	67.59
646.677	67.59
646.866	67.21
647.054	67.85
647.242	68.28
647.43	68.11
647.618	68.32
647.807	68.59
647.995	68.39
648.183	68.24
648.371	67.81
648.559	67.45
648.747	67.74
648.935	67.88
649.123	68.1
649.311	68.05
649.499	67.86
649.687	67.53
649.875	67.2
650.063	67.42
650.251	67.42
650.439	66.85
650.627	66.93
650.815	67.3
651.003	67.32
651.191	67.54
651.378	67.66
651.566	67.3
651.754	67.57
651.942	67.46
652.13	67.91
652.317	67.73
652.505	67.52
652.693	67.33
652.88	67.29
653.068	66.98
653.256	67.39
653.443	67.28
653.631	67.6
653.819	67.77
654.006	67.9
654.194	68.05
654.381	67.58
654.569	67.47
654.756	67.41
654.944	67.41
655.131	67.22
655.319	67.29
655.506	67.52
655.693	67.17
655.881	67.11
656.068	67.36
656.256	67.08
656.443	67.15
656.63	67.38
656.818	67.31
657.005	67.32
657.192	67.08
657.379	66.99
657.567	66.7
657.754	66.44
657.941	66.52
658.128	66.38
658.315	66.34
658.502	66.59
658.69	66.5
658.877	66.89
659.064	67.26
659.251	67.65
659.438	67.54
659.625	67.52
659.812	67.43
659.999	67.8
660.186	67.78
660.373	68.27
660.56	67.82
660.747	67.46
660.934	67.07
661.121	67.23
661.308	66.88
661.494	66.58
661.681	66.04
661.868	66.22
662.055	65.95
662.242	66.28
662.428	66.65
662.615	66.68
662.802	66.76
662.989	66.22
663.175	66.03
663.362	65.96
663.549	65.39
663.735	65.84
663.922	65.87
664.109	66.56
664.295	66.79
664.482	67.19
664.668	66.76
664.855	66.69
665.041	66.63
665.228	66.18
665.414	65.67
665.601	65.73
665.787	65.68
665.974	65.9
666.16	66.18
666.347	66.74
666.533	66.62
666.719	66.96
666.906	67.58
667.092	67.79
667.278	67.39
667.465	67.27
667.651	67.09
667.837	67.27
668.023	66.64
668.21	66.93
668.396	67.44
668.582	67.47
668.768	67.45
668.954	67.28
669.14	68.09
669.327	67.97
669.513	68.08
669.699	68.31
669.885	67.94
670.071	68.01
670.257	67.91
670.443	68.31
670.629	67.75
670.815	67.16
671.001	66.82
671.187	66.79
671.373	66.96
671.559	66.95
671.744	67.24
671.93	67.17
672.116	67.39
672.302	67.86
672.488	67.6
672.674	67.44
672.859	67.52
673.045	67.13
673.231	66.58
673.417	66.61
673.602	66.62
673.788	67
673.974	67.03
674.159	67.38
674.345	67.54
674.531	67.55
674.716	67.36
674.902	67.58
675.087	67.91
675.273	68.08
675.459	68.04
675.644	68.03
675.83	67.67
676.015	67.71
676.2	67.03
676.386	67.06
676.571	67.15
676.757	66.86
676.942	67.36
677.128	67.2
677.313	67.52
677.498	67.29
677.684	67.43
677.869	67.16
678.054	67.3
678.24	67.78
678.425	67.87
678.61	67.8
678.795	67.7
678.98	67.66
679.166	67.16
679.351	67.24
679.536	67.16
679.721	67.53
679.906	67.79
680.091	67.67
680.276	68.04
680.461	68.36
680.647	68.71
680.832	68.76
681.017	68.73
681.202	68.31
681.387	68.11
681.572	67.34
681.756	67.21
681.941	67.06
682.126	67.1
682.311	67
682.496	66.84
682.681	66.94
682.866	67.13
683.051	67.32
683.235	67.2
683.42	67.2
683.605	67.49
683.79	67.5
683.974	67.65
684.159	67.83
684.344	67.78
684.529	67.9
684.713	67.98
684.898	68.24
685.083	67.62
685.267	67.3
685.452	67.02
685.636	66.49
685.821	67.04
686.005	66.86
686.19	66.62
686.375	66.62
686.559	66.66
686.744	66.54
686.928	66.53
687.112	66.59
687.297	66.94
687.481	67.42
687.666	67.68
687.85	68.1
688.034	67.89
688.219	67.72
688.403	67.12
688.587	67.16
688.772	66.96
688.956	66.69
689.14	67.11
689.324	67.29
689.509	67.22
689.693	67.58
689.877	67.23
690.061	66.72
690.245	66.08
690.43	65.97
690.614	66.24
690.798	66.3
690.982	66.48
691.166	66.14
691.35	66.01
691.534	66.64
691.718	66.37
691.902	65.83
692.086	65.31
692.27	65.4
692.454	65.44
692.638	65.48
692.822	65.21
693.006	65.5
693.19	65.59
693.373	65.48
693.557	65.51
693.741	66.17
693.925	66.31
694.109	66.5
694.293	66.34
694.476	66.17
694.66	66.24
694.844	66.63
695.027	67.11
695.211	66.67
695.395	66.93
695.578	66.84
695.762	66.9
695.946	66.77
696.129	66.93
696.313	67.1
696.497	66.64
696.68	66.46
696.864	66.58
697.047	66.56
697.231	66.67
697.414	66.41
697.598	67.08
697.781	67.08
697.965	67.42
698.148	67.5
698.331	67.79
698.515	67.41
698.698	67.04
698.881	67.79
699.065	67.75
699.248	67.55
699.431	66.9
699.615	66.43
699.798	66.44
699.981	66.37
700.165	66.33
700.348	66.02
700.531	66.2
700.714	66.39
700.897	66.81
701.08	66.23
701.264	66.34
701.447	66.56
701.63	66.16
701.813	65.97
701.996	65.7
702.179	66.27
702.362	65.99
702.545	65.88
702.728	65.86
702.911	65.81
703.094	65.75
703.277	66.48
703.46	66.49
703.643	66.27
703.826	66.02
704.009	65.65
704.191	65.96
704.374	66.24
704.557	66.36
704.74	66.42
704.923	66.27
705.106	66.16
705.288	65.82
705.471	65.64
705.654	65.67
705.837	65.98
706.019	66.81
706.202	66.85
706.385	66.62
706.567	66.22
706.75	65.96
706.932	66.05
707.115	66.7
707.298	66.32
707.48	66.11
707.663	65.67
707.845	66.24
708.028	65.98
708.21	66.21
708.393	66.28
708.575	66.22
708.758	66.19
708.94	65.87
709.123	65.76
709.305	65.72
709.487	65.9
709.67	65.67
709.852	65.48
710.034	65.08
710.217	65.33
710.399	65.16
710.581	65.83
710.764	65.74
710.946	65.7
711.128	65.08
711.31	65.11
711.492	65.2
711.675	65.31
711.857	65.97
712.039	65.85
712.221	65.91
712.403	65.9
712.585	65.83
712.767	65.41
712.949	65.76
713.131	65.28
713.314	65.02
713.496	65.34
713.678	65.21
713.86	65.17
714.041	65.27
714.223	64.8
714.405	64.54
714.587	64.89
714.769	64.32
714.951	64.6
715.133	64.9
715.315	65.49
715.497	65.48
715.678	65.5
715.86	65.48
716.042	65.02
716.224	64.86
716.406	64.84
716.587	65.11
716.769	64.8
716.951	64.84
717.132	64.98
717.314	65.08
717.496	64.76
717.677	64.92
717.859	64.62
718.041	64.71
718.222	64.35
718.404	64.62
718.585	64.62
718.767	64.61
718.948	64.28
719.13	64.07
719.311	64.52
719.493	64.67
719.674	64.85
719.856	64.61
720.037	64.67
720.219	64.86
720.4	64.12
720.581	63.43
720.763	63.17
720.944	63.07
721.125	63.45
721.307	63.66
721.488	63.41
721.669	63.55
721.85	63.52
722.032	63.51
722.213	63.58
722.394	63.26
722.575	62.84
722.756	63.55
722.938	63.55
723.119	63.18
723.3	63.27
723.481	63.11
723.662	63.17
723.843	63.15
724.024	63.13
724.205	63.22
724.386	63.8
724.567	64.44
724.748	63.92
724.929	64.1
725.11	64.34
725.291	64.35
725.472	63.73
725.653	63.56
725.834	63.21
726.015	62.96
726.196	63.11
726.377	63.38
726.557	63.45
726.738	62.96
726.919	62.72
727.1	62.48
727.281	62.54
727.461	62.58
727.642	62.84
727.823	63.11
728.004	63.65
728.184	63.23
728.365	63.42
728.546	63.3
728.726	63.21
728.907	63.44
729.087	63.73
729.268	63.22
729.449	63.04
729.629	62.86
729.81	62.61
729.99	62.55
730.171	62.7
730.351	62.38
730.532	62.4
730.712	62.63
730.893	62.57
731.073	61.93
731.253	62.5
731.434	62.82
731.614	62.64
731.795	62.55
731.975	62.46
732.155	62.52
732.336	62.41
732.516	61.88
732.696	61.59
732.876	61.23
733.057	61.4
733.237	61.03
733.417	61.05
733.597	61.83
733.778	61.91
733.958	61.84
734.138	61.3
734.318	61.11
734.498	61.1
734.678	61.53
734.858	61.28
735.038	61.3
735.218	61.22
735.398	61.48
735.579	61.27
735.759	61.64
735.939	61.73
736.119	61.43
736.298	62.05
736.478	61.51
736.658	61.34
736.838	61.24
737.018	61.22
737.198	60.77
737.378	60.92
737.558	60.97
737.738	60.78
737.917	60.48
738.097	60.31
738.277	60.75
738.457	61.25
738.637	60.59
738.816	60.97
738.996	61.13
739.176	61.53
739.355	60.98
739.535	60.85
739.715	60.53
739.894	60.07
740.074	60.3
740.254	60.16
740.433	60.7
740.613	60.06
740.792	60.06
740.972	59.62
741.151	59.33
741.331	59.98
741.51	59.32
741.69	59.22
741.869	59.99
742.049	59.88
742.228	59.88
742.408	59.95
742.587	60.53
742.766	60.09
742.946	60.58
743.125	60.54
743.305	60.16
743.484	59.94
743.663	59.64
743.842	59.28
744.022	59.03
744.201	58.68
744.38	59.05
744.56	59.08
744.739	58.98
744.918	59.25
745.097	59.63
745.276	60.07
745.455	60.02
745.635	59.85
745.814	59.68
745.993	59.43
746.172	59.77
746.351	59.94
746.53	59.32
746.709	59.7
746.888	59.71
747.067	59.69
747.246	59.4
747.425	59.72
747.604	59.26
747.783	59.19
747.962	59.21
748.141	59.29
748.32	58.98
748.499	58.41
748.677	58.41
748.856	59.1
749.035	59.09
749.214	59.29
749.393	59.61
749.572	59.61
749.75	59.2
749.929	59.37
750.108	59.53
750.287	58.88
750.465	59.61
750.644	59.3
750.823	58.92
751.001	58.75
751.18	58.9
751.359	58.59
751.537	58.18
751.716	58.34
751.894	58.69
752.073	58.92
752.251	58.93
752.43	59.1
752.609	58.92
752.787	58.99
752.966	58.46
753.144	58.48
753.322	58.07
753.501	58.15
753.679	57.9
753.858	57.43
754.036	57.87
754.215	57.97
754.393	58.82
754.571	58.46
754.75	58.51
754.928	58.61
755.106	59.28
755.284	59.4
755.463	58.97
755.641	58.81
755.819	58.54
755.997	58.17
756.176	58.5
756.354	58.8
756.532	58.61
756.71	58.59
756.888	58.63
757.066	58.59
757.245	58.31
757.423	58.28
757.601	58.13
757.779	58.27
757.957	57.46
758.135	57.23
758.313	57.3
758.491	57.73
758.669	57.61
758.847	57.71
759.025	57.62
759.203	56.99
759.381	57.77
759.559	57.46
759.737	57.55
759.915	57.18
760.092	57.47
760.27	56.7
760.448	56.96
760.626	56.73
760.804	56.61
760.981	56.8
761.159	57.09
761.337	56.81
761.515	56.66
761.692	56.8
761.87	56.51
762.048	56.28
762.226	57.37
762.403	56.87
762.581	57.26
762.759	57.36
762.936	56.42
763.114	56.16
763.291	56.7
763.469	56.09
763.647	56.93
763.824	56.84
764.002	57.12
764.179	57.17
764.357	57.5
764.534	56.07
764.712	56.32
764.889	56.08
765.066	56.41
765.244	56.57
765.421	57.08
765.599	56.59
765.776	56.22
765.953	56.31
766.131	56.04
766.308	56.41
766.485	56.74
766.663	56.14
766.84	56.3
767.017	55.67
767.194	55.33
767.372	56.2
767.549	56.16
767.726	56.4
767.903	56.3
768.081	56.29
768.258	56.07
768.435	55.35
768.612	55.24
768.789	55.21
768.966	55.06
769.143	54.34
769.32	55.26
769.497	55.39
769.674	54.55
769.851	55.01
770.028	55.06
770.205	54.84
770.382	54.81
770.559	55.15
770.736	55.25
770.913	56.06
771.09	55.24
771.267	55.2
771.444	55.29
771.621	55.5
771.798	55.55
771.975	55.18
772.151	54.76
772.328	55.01
772.505	55.57
772.682	55.49
772.859	55.22
773.035	54.1
773.212	54.69
773.389	55.05
773.565	55.4
773.742	56.15
773.919	56.46
774.096	55.89
774.272	56.12
774.449	55.6
774.625	55.55
774.802	54.97
774.979	54.63
775.155	55.13
775.332	55.02
775.508	55.14
775.685	55.1
775.861	55.28
776.038	54.24
776.214	54.43
776.391	54.96
776.567	54.8
776.744	55.29
776.92	55.83
777.096	55.22
777.273	55.93
777.449	56.12
777.626	55.24
777.802	55.17
777.978	55.99
778.155	55.83
778.331	55.16
778.507	55.53
778.683	54.85
778.86	54.48
779.036	54.7
779.212	54.93
779.388	54.64
779.565	54.01
779.741	55.23
779.917	55.27
780.093	56.29
780.269	55.16
780.445	55.48
780.621	55.15
780.797	55.91
780.974	55.48
781.15	56.16
781.326	55.98
781.502	55.87
781.678	54.94
781.854	54.73
782.03	54.7
782.206	54.06
782.382	55.43
782.558	55.06
782.733	55.09
782.909	54.74
783.085	54.24
783.261	54.73
783.437	54.52
783.613	54.54
783.789	54.63
783.965	54.74
784.14	54.81
784.316	54.02
784.492	53.8
784.668	54.18
784.843	55.04
785.019	54.3
785.195	55.33
785.371	54.86
785.546	54.5
785.722	54.62
785.898	55.78
786.073	55.64
786.249	55.73
786.424	55.33
786.6	55.53
786.776	55.55
786.951	55.16
787.127	54.72
787.302	54.68
787.478	54.83
787.653	54.74
787.829	53.81
788.004	54.24
788.18	53.4
788.355	55.01
788.531	54.14
788.706	55.15
788.881	54.29
789.057	54.75
789.232	55.03
789.408	54.2
789.583	54.09
789.758	54.19
789.934	53.98
790.109	54.05
790.284	53.58
790.459	54.06
790.635	54.75
790.81	53.6
790.985	54.13
791.16	53.63
791.336	53.31
791.511	54.51
791.686	55.2
791.861	54.08
792.036	54.48
792.211	54.09
792.387	53.61
792.562	53.97
792.737	53.82
792.912	53.27
793.087	53.61
793.262	53.36
793.437	53.29
793.612	52.76
793.787	52.78
793.962	52.73
794.137	53.92
794.312	53.84
794.487	53.29
794.662	54.22
794.837	53.19
795.011	53.35
795.186	52.87
795.361	53.47
795.536	53.49
795.711	53.83
795.886	54.51
796.06	53.96
796.235	55.01
796.41	52.96
796.585	54.99
796.76	54.38
796.934	53.84
797.109	54.37
797.284	55.07
797.458	52.94
797.633	54.02
797.808	54.46
797.982	52.9
798.157	53.3
798.332	53.92
798.506	51.92
798.681	53.72
798.855	53.73
799.03	54.64
799.204	53.08
799.379	52.77
799.553	53.57
799.728	54.15
799.902	54.58
800.077	54.27
800.251	55.34
800.426	55.04
800.6	53.8
800.775	53.46
800.949	54.57
801.123	53.68
801.298	54.17
801.472	53.58
801.647	52.76
801.821	53.65
801.995	53.67
802.169	54.54
802.344	54.57
802.518	53.14
802.692	53.94
802.867	53.02
803.041	54.13
803.215	53.34
803.389	54.3
803.563	53.15
803.737	53.07
803.912	52.8
804.086	51.86
804.26	52.13
804.434	53.09
804.608	55.76
804.782	54.3
804.956	51.29
805.13	53.22
805.304	51.93
805.478	54.54
805.652	52.94
805.826	53.29
806	53.18
806.174	53.57
806.348	51.71
806.522	51.13
806.696	52.51
806.87	52.93
807.044	52.74
807.218	52.87
807.392	51.24
807.566	52.68
807.739	52.21
807.913	51.69
808.087	51.37
808.261	52.37
808.435	52.25
808.608	51.55
808.782	53.27
808.956	52.38
809.13	52.92
809.303	51.56
809.477	52.55
809.651	51.75
809.824	52.38
809.998	52.05
810.172	53.88
810.345	53.45
810.519	53.06
810.692	55.17
810.866	52.07
811.04	54.74
811.213	54.97
811.387	52.8
811.56	54.73
811.734	53.36
811.907	54.7
812.081	54.41
812.254	54.37
812.428	53.68
812.601	52.27
812.774	52.25
812.948	53.77
813.121	53.65
813.295	53.25
813.468	53.97
813.641	54.45
813.815	54.04
813.988	54.32
814.161	52.7
814.335	53.75
814.508	52.5
814.681	54.72
814.854	52.14
815.028	51.77
815.201	52.32
815.374	52.55
815.547	53.41
815.72	52.22
815.894	53.85
816.067	52.91
816.24	53.26
816.413	53.34
816.586	51.89
816.759	55.61
816.932	54.83
817.105	52.03
817.278	52.97
817.452	52.48
817.625	53.74
817.798	53.63
817.971	53.8
818.144	52.19
818.317	53.1
818.49	54.51
818.662	51.35
818.835	52.66
819.008	53.36
819.181	56.45
819.354	52.69
819.527	53.56
819.7	54.15
819.873	53.57
820.046	53.35
820.218	55.64
820.391	52.67
820.564	54.9
820.737	55.75
820.909	54.06
821.082	55.31
821.255	52.07
821.428	53.56
821.6	53.68
821.773	52.36
821.946	52.84
822.118	52.68
822.291	53.62
822.464	53.69
822.636	54.78
822.809	52.12
822.982	51.11
823.154	53.7
823.327	52.22
823.499	52.24
823.672	52.75
823.844	51.73
824.017	52.67
824.189	52.12
824.362	53.56
824.534	54.43
824.707	52.8
824.879	52.75
825.052	52.48
825.224	53.87
825.396	55.57
825.569	51.93
825.741	54.48
825.914	53.41
826.086	52.47
826.258	52.65
826.431	53.59
826.603	51.82
826.775	51.61
826.947	52.67
827.12	53.53
827.292	53.36
827.464	55.58
827.636	53.2
827.809	53.88
827.981	55.47
828.153	54.37
828.325	56.18
828.497	52.19
828.669	55.36
828.842	53.37
829.014	55.22
829.186	53.96
829.358	53.72
829.53	52.6
829.702	54.13
829.874	53.23
830.046	53.23
830.218	55.11
830.39	53.83
830.562	51.25
830.734	53.9
830.906	52.84
831.078	53.16
831.25	54.26
831.422	54.55
831.594	57.64
831.766	53.24
831.937	53.41
832.109	53.23
832.281	54.89
832.453	56.01
832.625	55.14
832.797	54.22
832.968	54.91
833.14	54.62
833.312	54.55
833.484	55.55
833.655	54.05
833.827	54.54
833.999	53.91
834.171	54.17
834.342	53.53
834.514	56.44
834.686	53.26
834.857	53.37
835.029	55.2
835.2	55.35
835.372	55.55
835.544	55.37
835.715	54.38
835.887	53.88
836.058	56.21
836.23	56.53
836.401	54.38
836.573	56.5
836.744	55.21
836.916	55.21
837.087	56.63
837.259	54.3
837.43	53.45
837.602	55.98
837.773	56.01
837.945	54.65
838.116	55.29
838.287	55.39
838.459	55.92
838.63	55.75
838.801	56.4
838.973	54.81
839.144	57.11
839.315	54.56
839.487	56.02
839.658	56.73
839.829	54.61
840	56.01
840.172	57.08
840.343	56.07
840.514	56.63
840.685	55.03
840.856	56.36
841.027	55.77
841.199	52.39
841.37	54.27
841.541	55.43
841.712	55.5
841.883	53.91
842.054	55.09
842.225	56.64
842.396	55.98
842.567	55.07
842.738	52.79
842.909	53.4
843.08	55.88
843.251	56.17
843.422	56.52
843.593	55.36
843.764	56.8
843.935	53.95
844.106	56.05
844.277	53.65
844.448	54.39
844.619	56.66
844.79	54.85
844.96	54.51
845.131	54.04
845.302	57.33
845.473	55.92
845.644	55.56
845.814	55.9
845.985	57.94
846.156	58.76
846.327	56.86
846.497	58.27
846.668	53.8
846.839	56.85
847.01	55.98
847.18	58.15
847.351	55.28
847.522	54.97
847.692	56.26
847.863	57.12
848.033	55.75
848.204	56.22
848.375	55.91
848.545	53.89
848.716	56.02
848.886	57.37
849.057	59.54
849.227	56.79
849.398	55.27
849.568	53.97
849.739	57.91
849.909	56.44
850.08	55.17
850.25	55.59
850.421	56.05
850.591	56.38
850.761	55.65
850.932	56.41
851.102	52.87
851.272	55.73
851.443	56.37
851.613	54.21
851.783	54.54
851.954	56.16
852.124	54.82
852.294	55.53
852.465	54.39
852.635	55.25
852.805	56.1
852.975	57.01
853.145	54.18
853.316	54.16
853.486	56.86
853.656	57.29
853.826	54.58
853.996	57.28
854.166	53.59
854.337	54.38
854.507	56.91
854.677	56.03
854.847	59.27
855.017	53.07
855.187	53.15
855.357	54.09
855.527	53.82
855.697	55.65
855.867	59.18
856.037	57.07
856.207	57.28
856.377	54.34
856.547	53.6
856.717	56.69
856.887	55.87
857.057	56.91
857.227	54.68
857.397	57.2
857.566	59.66
857.736	56.78
857.906	55.76
858.076	55.73
858.246	56.65
858.416	55.58
858.585	55.55
858.755	55.94
858.925	55.97
859.095	57.08
859.264	57.73
859.434	56.14
859.604	59.06
859.774	57.94
859.943	60.72
860.113	57.65
860.283	56.58
860.452	56.87
860.622	56.61
860.791	56.9
860.961	57.46
861.131	57.75
861.3	61.25
861.47	54.55
861.639	60.3
861.809	54.26
861.978	57.9
862.148	58.8
862.318	55.81
862.487	57.17
862.657	57.87
862.826	55.86
862.995	56.93
863.165	58.71
863.334	55.62
863.504	53.26
863.673	59.36
863.843	58.78
864.012	55.14
864.181	56.21
864.351	58.53
864.52	57.08
864.689	55.13
864.859	58.31
865.028	54.18
865.197	58.12
865.366	59.51
865.536	57.43
865.705	57.09
865.874	54.77
866.043	59.78
866.213	60.81
866.382	56.36
866.551	59.87
866.72	56.76
866.889	63.39
867.059	53.97
867.228	61.45
867.397	54.59
867.566	58.77
867.735	59.4
867.904	57.09
868.073	55.89
868.242	57.26
868.411	56.34
868.58	57.52
868.749	60.09
868.918	55.04
869.087	57.54
869.256	55.45
869.425	58.95
869.594	56.8
869.763	56.36
869.932	56.61
870.101	60.21
870.27	54.07
870.439	58.38
870.608	59.06
870.777	57.63
870.945	53.59
871.114	60.49
871.283	57.76
871.452	57.61
871.621	59.24
871.789	56.94
871.958	57.51
872.127	56.1
872.296	62.03
872.464	58.68
872.633	56.66
872.802	55.63
872.971	60.48
873.139	53.82
873.308	62.53
873.477	60.21
873.645	59.79
873.814	55.48
873.983	61.06
874.151	57.69
874.32	59.32
874.488	57.65
874.657	64.76
874.826	58.59
874.994	57.12
875.163	60.59
875.331	59.21
875.5	61.07
875.668	54.7
875.837	55.69
876.005	61.87
876.174	53.28
876.342	58.68
876.51	58.85
876.679	58.57
876.847	58.22
877.016	57.29
877.184	60.27
877.352	60.81
877.521	61.01
877.689	57.97
877.857	58.01
878.026	56.79
878.194	63.72
878.362	57.49
878.531	54.82
878.699	58.51
878.867	57.19
879.036	53.56
879.204	58.12
879.372	57.64
879.54	57.35
879.708	52.72
879.877	55.63
880.045	52.51
880.213	59.71
880.381	60.9
880.549	60.38
880.717	61.8
880.885	56.37
881.054	60.08
881.222	55.81
881.39	57.69
881.558	59.86
881.726	60.81
881.894	52.12
882.062	56.87
882.23	61.75
882.398	57.46
882.566	61.59
882.734	59.56
882.902	53.52
883.07	47.66
883.238	55.23
883.406	61.41
883.574	55.88
883.741	59.59
883.909	51.77
884.077	53.89
884.245	59
884.413	56.06
884.581	54.32
884.749	57.34
884.916	54.23
885.084	54.4
885.252	58.84
885.42	52.84
885.587	60.27
885.755	61.74
885.923	60.01
886.091	56.67
886.258	61.79
886.426	52.35
886.594	55.17
886.761	56.54
886.929	61.04
887.097	60.92
887.264	61.95
887.432	62.07
887.6	59.16
887.767	55.61
887.935	58.08
888.102	54.01
888.27	53.77
888.438	57.76
888.605	62.49
888.773	61.82
888.94	58.36
889.108	53.97
889.275	61.05
889.443	61.42
889.61	62.06
889.778	50.8
889.945	62.31
890.112	58.3
890.28	58.76
890.447	60.33
890.615	60.47
890.782	59.11
890.949	59.64
891.117	57.89
891.284	53.59
891.452	61.32
891.619	57.23
891.786	55.63
891.953	59.13
892.121	56.67
892.288	56.97
892.455	65.33
892.623	60.7
892.79	61.93
892.957	55.47
893.124	54.19
893.291	53.21
893.459	56.99
893.626	63.3
893.793	61.44
893.96	53.22
894.127	59.52
894.294	54.47
894.461	59.6
894.629	61.32
894.796	62.85
894.963	58.6
895.13	57.42
895.297	59.21
895.464	62.77
895.631	56.09
895.798	59.18
895.965	63.4
896.132	49.84
896.299	54.88
896.466	57
896.633	51.39
896.8	64.91
896.967	53.76
897.134	61.42
897.301	64.26
897.467	57.4
897.634	61.98
897.801	60.1
897.968	62.37
898.135	62.14
898.302	58.52
898.469	62.82
898.635	59.7
898.802	63.53
898.969	55.19
899.136	65.87
899.303	62.05
