Data from x0_Transmission_15-13-53-907.txt Node
Date: Thu May 02 15:13:53 EDT 2019
User: dh1006
Spectrometer: USB4E01358
Autoset integration time: false
Trigger mode: 4
Integration Time (sec): 8.000000E-2
Scans to average: 1
Electric dark correction enabled: true
Nonlinearity correction enabled: false
Boxcar width: 0
Stray light correction enabled: false
XAxis mode: Wavelengths
Stop averaging: false
Number of Pixels in Spectrum: 3648
>>>>>Begin Spectral Data<<<<<
176.727	-350
176.966	-350
177.205	-350
177.444	66.29
177.683	6.94
177.922	-10.41
178.161	-12.96
178.4	1
178.638	5825
178.877	526.09
179.116	-69.47
179.355	-1000
179.593	-145.42
179.832	-156.02
180.071	79.53
180.309	3477.78
180.548	66.55
180.786	-113.08
181.025	11675
181.263	-45.17
181.502	136.13
181.74	40
181.979	52.38
182.217	-143.35
182.456	154.99
182.694	-66.14
182.932	33.81
183.17	84.91
183.409	-345.58
183.647	65.57
183.885	-110.53
184.123	68.03
184.361	-8.63
184.6	-148.73
184.838	2322.22
185.076	717.86
185.314	-99.35
185.552	140.2
185.79	78.11
186.028	9.66
186.266	38.59
186.503	64.33
186.741	47.67
186.979	133.83
187.217	-4900
187.455	239.92
187.693	119.84
187.93	45.4
188.168	570.83
188.406	22.4
188.643	82.95
188.881	-321.74
189.119	16.14
189.356	71.3
189.594	103.82
189.831	278.51
190.069	-98.92
190.306	-8.21
190.543	52.84
190.781	87.65
191.018	50.57
191.256	534.43
191.493	-40.69
191.73	-46.45
191.967	439.29
192.205	-113.32
192.442	76.41
192.679	10050
192.916	-114.38
193.153	104.51
193.39	-396.43
193.628	331.52
193.865	82.8
194.102	227.78
194.339	-37.66
194.576	88.81
194.813	27.68
195.049	129.38
195.286	14.37
195.523	-21.12
195.76	-0.29
195.997	20.43
196.234	10.33
196.47	61.15
196.707	18.66
196.944	38.08
197.18	61.72
197.417	61.33
197.654	-10.51
197.89	108.82
198.127	90.13
198.363	16.09
198.6	-19.33
198.836	132.44
199.073	74.06
199.309	63.84
199.546	54.05
199.782	-55.66
200.018	-350
200.255	36.88
200.491	-758.14
200.727	18.71
200.963	40
201.199	-207.57
201.436	314.61
201.672	-19.64
201.908	161.17
202.144	25.82
202.38	67.37
202.616	108.75
202.852	55.45
203.088	40.27
203.324	-329.47
203.56	-429.27
203.796	102.64
204.032	83.97
204.268	706.25
204.503	142.58
204.739	-188.44
204.975	12.53
205.211	-69.78
205.446	50.72
205.682	51.42
205.918	239.53
206.153	-1.65
206.389	188.06
206.625	36.71
206.86	42.95
207.096	72.5
207.331	-25.53
207.567	139.25
207.802	25.85
208.037	-90
208.273	-41.53
208.508	-25
208.744	109.94
208.979	36.12
209.214	-1650
209.449	-113
209.685	-159.95
209.92	52.02
210.155	-126.05
210.39	-69.86
210.625	741.07
210.86	118.73
211.095	223.53
211.33	-5.1
211.565	-362.04
211.8	60.92
212.035	514.88
212.27	56.78
212.505	41.84
212.74	85.53
212.975	1481.82
213.21	128.87
213.444	23.4
213.679	20.18
213.914	2.29
214.149	11.37
214.383	15.08
214.618	43.25
214.853	-66.31
215.087	6.45
215.322	181.46
215.556	143.22
215.791	995.35
216.025	-0.83
216.26	23.4
216.494	264.86
216.729	-193.52
216.963	94.93
217.197	-71.76
217.432	55.01
217.666	347.56
217.9	24.24
218.135	36.18
218.369	2755.56
218.603	132.63
218.837	5.7
219.071	20.7
219.306	99.11
219.54	42.71
219.774	117.39
220.008	62.57
220.242	-204.96
220.476	529.41
220.71	154.75
220.944	86.84
221.178	-318.29
221.411	-179.66
221.645	-10.5
221.879	55.52
222.113	-1086.67
222.347	25.35
222.58	16.74
222.814	35.65
223.048	-193.52
223.281	64.57
223.515	438.05
223.749	-220
223.982	-44.23
224.216	703
224.449	77.63
224.683	-105.65
224.916	35.19
225.15	81.68
225.383	-90
225.617	-29.14
225.85	8.59
226.083	85.22
226.317	58.91
226.55	-183.42
226.783	588.89
227.016	43.86
227.25	40
227.483	-814.29
227.716	-58.71
227.949	-0.22
228.182	36.71
228.415	-45.57
228.648	161.88
228.881	80.21
229.114	-135.77
229.347	80.57
229.58	534
229.813	56.77
230.046	24.24
230.279	-20.05
230.512	16.07
230.745	-6.06
230.977	49.48
231.21	62.02
231.443	-39.26
231.675	-71.43
231.908	2058.82
232.141	84.71
232.373	-329.47
232.606	-195.24
232.839	12.85
233.071	-144.89
233.304	-128.41
233.536	231.58
233.769	132.26
234.001	57.42
234.233	-145.37
234.466	7.96
234.698	210.78
234.93	-107.93
235.163	2.35
235.395	-425.58
235.627	-34.85
235.86	-359.42
236.092	82.23
236.324	11.77
236.556	42.46
236.788	18.07
237.02	102.25
237.252	-6.64
237.484	2.54
237.716	-956.67
237.948	-4.62
238.18	192.56
238.412	97.49
238.644	198.44
238.876	-122.5
239.108	-4.43
239.34	-211.48
239.571	-87.72
239.803	30.94
240.035	92.88
240.267	51.25
240.498	-7066.67
240.73	555.74
240.962	-137.69
241.193	-70.76
241.425	83
241.656	131.65
241.888	24.46
242.119	54.31
242.351	-1120.93
242.582	-31.13
242.814	321.49
243.045	83.33
243.277	57.46
243.508	264.86
243.739	-113.29
243.971	14.33
244.202	31.16
244.433	-105.78
244.664	53.26
244.896	-16.77
245.127	28.77
245.358	-489.29
245.589	-68.21
245.82	266.28
246.051	-84.75
246.282	81.88
246.513	175.84
246.744	86.81
246.975	204.88
247.206	136.96
247.437	47.32
247.668	-362.04
247.899	85.57
248.129	-41.25
248.36	-30.25
248.591	55.16
248.822	4.62
249.052	-88.06
249.283	-1.88
249.514	5.64
249.744	-43.09
249.975	-70.25
250.206	102.1
250.436	98.48
250.667	131.65
250.897	18.56
251.128	8.19
251.358	335.14
251.589	256.67
251.819	43.1
252.049	-5.05
252.28	70.73
252.51	-31.87
252.74	76.9
252.971	11350
253.201	-26.9
253.431	-5.56
253.661	91.51
253.891	72.5
254.121	-61.6
254.352	230.67
254.582	-1000
254.812	35.86
255.042	-85.43
255.272	-68.5
255.502	63.32
255.732	-422.22
255.962	363.93
256.192	80.69
256.421	29.7
256.651	93.05
256.881	63.11
257.111	74.06
257.341	-30.25
257.57	100.73
257.8	51.53
258.03	59.48
258.259	19.75
258.489	39.78
258.719	-0.2
258.948	15.57
259.178	2.77
259.407	-286.73
259.637	-117.86
259.866	-228.13
260.096	19.1
260.325	202.31
260.555	136.13
260.784	66.79
261.013	-1208.93
261.243	70.02
261.472	247.3
261.701	80.44
261.931	34.09
262.16	83.33
262.389	29.44
262.618	83.33
262.847	20.68
263.076	30.08
263.305	-181.1
263.535	-104.72
263.764	-0.21
263.993	18.38
264.222	-1.62
264.451	-34.85
264.679	47
264.908	27.7
265.137	43.44
265.366	57.8
265.595	68.13
265.824	79.36
266.053	108.5
266.281	-75.72
266.51	62.44
266.739	39.31
266.967	19.77
267.196	625
267.425	98.73
267.653	-39.89
267.882	7.5
268.11	330.95
268.339	14.37
268.567	-190.57
268.796	-224.37
269.024	-489.29
269.253	6.56
269.481	90.92
269.709	32.91
269.938	121.35
270.166	71.71
270.394	-197.87
270.623	53.58
270.851	3.51
271.079	101.79
271.307	47.29
271.535	102.17
271.764	6.6
271.992	267.73
272.22	4.55
272.448	64.33
272.676	132.75
272.904	-22.76
273.132	-10.73
273.36	18.47
273.588	-47.47
273.816	87.27
274.043	26.79
274.271	63.64
274.499	-0.44
274.727	35.19
274.955	25.35
275.182	36.77
275.41	-203.23
275.638	112.27
275.866	1085.42
276.093	71.93
276.321	-172.17
276.548	37.83
276.776	11.11
277.003	52.21
277.231	262.86
277.458	50.76
277.686	56.25
277.913	-57.5
278.141	88.24
278.368	106.18
278.595	65.06
278.823	30.49
279.05	-51.99
279.277	-46.18
279.505	-36.21
279.732	-124.7
279.959	-145.71
280.186	-80.1
280.413	-21.68
280.641	-173.41
280.868	7.63
281.095	-44.12
281.322	-523.33
281.549	-41.97
281.776	-104.18
282.003	4.59
282.23	-134.83
282.457	98.69
282.683	65.26
282.91	-16.87
283.137	51.42
283.364	3136.36
283.591	-251.68
283.818	-6850
284.044	-1151.16
284.271	-23.32
284.498	8.25
284.724	63.64
284.951	70.69
285.178	55.68
285.404	91.93
285.631	62.44
285.857	-31.77
286.084	36.32
286.31	-125.45
286.537	-123.33
286.763	-10.67
286.99	26.75
287.216	1744.44
287.442	25.85
287.669	45.57
287.895	66.12
288.121	328.06
288.347	86.97
288.574	-3.69
288.8	35.59
289.026	201.52
289.252	-90.43
289.478	-330.6
289.704	-37.82
289.931	-9.45
290.157	-5.03
290.383	-48.51
290.609	31.28
290.835	78.05
291.06	-82.74
291.286	-10.5
291.512	-120.81
291.738	114.29
291.964	45.69
292.19	-71.43
292.416	20.43
292.641	73.22
292.867	-28.99
293.093	820
293.319	58.47
293.544	14.39
293.77	-56.45
293.995	114.29
294.221	-43.57
294.447	84.54
294.672	-22.27
294.898	25.81
295.123	-72.84
295.349	-62.03
295.574	-318.29
295.799	107.85
296.025	64.48
296.25	-16.74
296.476	-402
296.701	51.94
296.926	44.73
297.151	4.55
297.377	374.29
297.602	-49.68
297.827	15.99
298.052	161.88
298.277	30.6
298.502	28.9
298.727	20.21
298.953	1.64
299.178	32.75
299.403	90.95
299.628	90.73
299.852	-98.74
300.077	-3523.53
300.302	86.64
300.527	-62.94
300.752	-12.88
300.977	534
301.202	385.25
301.426	-10.5
301.651	-59.05
301.876	-25
302.101	-67.73
302.325	13.88
302.55	-113
302.775	155.16
302.999	86.15
303.224	26.91
303.448	37.03
303.673	-398.15
303.897	103.57
304.122	26.6
304.346	77.81
304.571	14.95
304.795	-62.59
305.019	53.82
305.244	71.04
305.468	36.49
305.692	63.64
305.917	257.02
306.141	-18.65
306.365	-147.54
306.589	-34.29
306.813	40.37
307.038	24.52
307.262	-154.79
307.486	157.62
307.71	12000
307.934	66.22
308.158	14.45
308.382	-11.88
308.606	-152.99
308.83	-2.49
309.054	-156.44
309.278	61.94
309.502	41.33
309.725	179.77
309.949	12.85
310.173	49.71
310.397	40.6
310.62	319.4
310.844	149.82
311.068	-57.5
311.292	101.04
311.515	-4.44
311.739	841.67
311.962	-58.87
312.186	71.85
312.41	-48.53
312.633	52.12
312.857	58.07
313.08	-253.7
313.303	27.33
313.527	-61.25
313.75	111.22
313.974	-60.71
314.197	13.72
314.42	134.87
314.644	-39.36
314.867	4.28
315.09	-17.83
315.313	79.51
315.536	41.87
315.76	17.59
315.983	-13.02
316.206	-21.45
316.429	-25
316.652	-64
316.875	0.98
317.098	43.21
317.321	-9.71
317.544	-90
317.767	47.35
317.99	-48.27
318.213	36.96
318.436	-8.54
318.658	-37.42
318.881	13.56
319.104	18.33
319.327	7.8
319.55	-36.65
319.772	93.95
319.995	-393.33
320.218	11.27
320.44	0.79
320.663	49.24
320.885	-119.04
321.108	15.43
321.331	-43.44
321.553	94.3
321.776	-1325
321.998	40.2
322.22	-42.7
322.443	68.56
322.665	-121.78
322.888	52.59
323.11	36.77
323.332	-11.73
323.555	64.22
323.777	37.72
323.999	16.13
324.221	-43.09
324.443	44.48
324.666	-10.99
324.888	17.53
325.11	117.36
325.332	19.1
325.554	-49.53
325.776	48.58
325.998	88.37
326.22	300
326.442	35.59
326.664	7.63
326.886	-307.08
327.108	93.79
327.33	109.33
327.551	33.52
327.773	10.29
327.995	26.01
328.217	6.97
328.439	33.61
328.66	8.74
328.882	-129.75
329.104	-141.07
329.325	42.73
329.547	64.58
329.769	-38.94
329.99	95.84
330.212	1301.64
330.433	-14.71
330.655	18.1
330.876	76.41
331.098	1450.82
331.319	34.47
331.54	52.29
331.762	-18.81
331.983	10.24
332.204	-20.63
332.426	1.76
332.647	7.87
332.868	89.08
333.089	-103.45
333.311	-26.56
333.532	40.86
333.753	-46.67
333.974	1.76
334.195	-60.33
334.416	68.25
334.637	237.1
334.858	45.81
335.079	-25
335.3	-71.76
335.521	25.63
335.742	92.75
335.963	64.31
336.184	119.86
336.405	6.29
336.626	22.76
336.846	3.8
337.067	139.05
337.288	41.48
337.509	-1086.67
337.729	34.69
337.95	-425.58
338.171	-13.57
338.391	-54.03
338.612	50.4
338.833	597.92
339.053	19.45
339.274	26.32
339.494	-6.34
339.715	454.76
339.935	65.51
340.156	68.64
340.376	-8.8
340.596	104.85
340.817	1228.57
341.037	172.47
341.257	85.17
341.478	-0.11
341.698	-0.27
341.918	-333.75
342.138	14.69
342.359	-224.19
342.579	-7.95
342.799	63.64
343.019	67.48
343.239	11.91
343.459	35.59
343.679	70.59
343.899	-9.75
344.119	-29.29
344.339	36.71
344.559	-0.12
344.779	181.82
344.999	-9.31
345.219	59.67
345.439	-126.51
345.658	6077.78
345.878	-350
346.098	-8.71
346.318	10.16
346.537	-54.55
346.757	90.32
346.977	8.29
347.196	-3.5
347.416	34.26
347.636	-39.43
347.855	-120.59
348.075	48.86
348.294	275.63
348.514	131.48
348.733	92
348.953	245.26
349.172	-23.56
349.392	-51.44
349.611	60.62
349.83	-10.87
350.05	-76.9
350.269	16.43
350.488	11.85
350.707	-133.33
350.927	2.72
351.146	12.79
351.365	38.83
351.584	-25
351.803	8.29
352.023	21.29
352.242	20.36
352.461	63.11
352.68	149.8
352.899	-13.53
353.118	-55.62
353.337	34.09
353.556	-4.09
353.775	35.94
353.993	-20.05
354.212	28.83
354.431	12.36
354.65	63.74
354.869	44.77
355.088	57.65
355.306	32.84
355.525	-32.75
355.744	33.59
355.962	111.29
356.181	194.59
356.4	45.32
356.618	-23.41
356.837	29.44
357.055	-1.91
357.274	52.75
357.492	-434.26
357.711	9.85
357.929	14.95
358.148	-318.22
358.366	193.57
358.585	-50.56
358.803	-51.82
359.021	714.16
359.24	-33.83
359.458	-145.85
359.676	15.03
359.894	37.2
360.113	41.59
360.331	5.83
360.549	560
360.767	-11.21
360.985	-146.27
361.203	49.43
361.421	48.06
361.639	38.62
361.857	45.05
362.075	4.89
362.293	20.88
362.511	-111.39
362.729	-116.85
362.947	-80.49
363.165	235
363.383	7.66
363.601	54.08
363.819	-13.45
364.036	-4.58
364.254	174.62
364.472	-45.87
364.689	-51.55
364.907	29.87
365.125	226.87
365.342	142.2
365.56	111.35
365.778	-19.67
365.995	-382.5
366.213	-189.25
366.43	-10.11
366.648	-54.34
366.865	103.09
367.083	103.73
367.3	-10.23
367.517	19.32
367.735	-29.95
367.952	47.45
368.17	30.23
368.387	11.87
368.604	26.96
368.821	138.62
369.039	-4.14
369.256	22.97
369.473	34.95
369.69	-15.5
369.907	-11075
370.124	654.55
370.341	-18.63
370.558	80.21
370.776	-34.11
370.993	27.53
371.21	80.28
371.426	58.07
371.643	10.44
371.86	40.77
372.077	-9.31
372.294	49.62
372.511	14.95
372.728	-33.28
372.945	51.47
373.161	-10.64
373.378	102.34
373.595	-13.61
373.811	69.89
374.028	72.44
374.245	-24.14
374.461	86.08
374.678	29.93
374.895	-63.24
375.111	-0.21
375.328	33.13
375.544	387.84
375.761	15.67
375.977	8.31
376.194	-25
376.41	-72.51
376.626	-0.13
376.843	57.98
377.059	43.83
377.275	25.64
377.492	31.77
377.708	26.73
377.924	9.89
378.14	51.47
378.357	66.78
378.573	-25
378.789	-10.64
379.005	-32.44
379.221	-92.36
379.437	7.25
379.653	33.53
379.869	39.77
380.085	-48.67
380.301	-9.04
380.517	3.09
380.733	47.73
380.949	-36.15
381.165	2.46
381.381	-19.7
381.597	19.52
381.813	23.85
382.028	-23.54
382.244	28.98
382.46	12.52
382.676	37.56
382.891	-10.08
383.107	-0.12
383.323	11.6
383.538	-16.41
383.754	-2.69
383.969	42.98
384.185	10.96
384.4	61.18
384.616	-61.87
384.831	8.51
385.047	-87.16
385.262	13.91
385.478	-14.17
385.693	45.69
385.909	29.83
386.124	21.02
386.339	0.78
386.554	-15.65
386.77	21.23
386.985	-3.91
387.2	-13.12
387.415	8.12
387.631	11.58
387.846	34.35
388.061	-19.3
388.276	-21.18
388.491	47.73
388.706	-17.84
388.921	1.55
389.136	18.3
389.351	34.66
389.566	-52
389.781	29.17
389.996	29.42
390.211	22.72
390.426	20.52
390.641	37.3
390.855	-34.29
391.07	3.59
391.285	9.51
391.5	-30.21
391.714	9.92
391.929	11.39
392.144	29.12
392.358	-5.15
392.573	-5.98
392.788	-15.3
393.002	5.27
393.217	0.7
393.431	-7.67
393.646	14.3
393.86	0.57
394.075	-8.37
394.289	-5.95
394.504	-13.32
394.718	16.11
394.933	-7.89
395.147	19.54
395.361	0.5
395.576	1.35
395.79	-2.88
396.004	-11.51
396.218	16.78
396.432	-5.01
396.647	7.04
396.861	8.11
397.075	28.56
397.289	4.26
397.503	-1.45
397.717	5.02
397.931	-2.78
398.145	1.9
398.359	-3.93
398.573	-2.2
398.787	-2.32
399.001	9.79
399.215	13.43
399.429	3.47
399.643	9.09
399.857	-8.67
400.07	-0.37
400.284	6.95
400.498	-5.42
400.712	15.93
400.925	13.76
401.139	-6.47
401.353	-10.21
401.566	6.43
401.78	4.01
401.994	-10.01
402.207	-6.08
402.421	1.02
402.634	-8.25
402.848	0.46
403.061	0.7
403.275	8.47
403.488	3.76
403.702	-0.95
403.915	2.6
404.128	3.72
404.342	-3.05
404.555	-5.88
404.768	-2.34
404.982	-5.08
405.195	-4.18
405.408	0.95
405.621	2.31
405.835	4.32
406.048	-0.78
406.261	8.29
406.474	6.34
406.687	2.3
406.9	4
407.113	2.87
407.326	-0.17
407.539	0.44
407.752	-1.63
407.965	6.88
408.178	2.8
408.391	4.99
408.604	-0.01
408.817	-0.75
409.029	5.66
409.242	-0.97
409.455	-2.62
409.668	0.77
409.881	1.62
410.093	0.86
410.306	-2.54
410.519	1.17
410.731	-0.5
410.944	2.4
411.157	5.68
411.369	-2.2
411.582	3.32
411.794	-3.92
412.007	2.56
412.219	2.69
412.432	2.36
412.644	3.89
412.857	4.71
413.069	4.67
413.281	3.36
413.494	7.63
413.706	2.74
413.918	1.21
414.131	4.56
414.343	-0.45
414.555	2.39
414.767	3.73
414.979	4.4
415.192	-0.76
415.404	4.28
415.616	2.36
415.828	2.25
416.04	-0.34
416.252	2.7
416.464	-0.64
416.676	4.9
416.888	1.85
417.1	-1.89
417.312	3.21
417.524	3.23
417.736	1.83
417.948	0.47
418.159	2.97
418.371	4.09
418.583	4.22
418.795	0.29
419.007	2.18
419.218	4
419.43	3.13
419.642	-0.01
419.853	-0.57
420.065	4.13
420.276	3.21
420.488	4.25
420.7	2.93
420.911	4.3
421.123	2.89
421.334	2.43
421.546	2.45
421.757	2.06
421.969	2.95
422.18	1.08
422.391	1.33
422.603	2
422.814	1.88
423.025	2.42
423.237	5.72
423.448	3.28
423.659	5.7
423.87	2.89
424.082	3.02
424.293	2
424.504	3.39
424.715	1.56
424.926	1.21
425.137	0.43
425.348	5.11
425.559	4.31
425.77	5.1
425.981	4.16
426.192	3.56
426.403	2.47
426.614	0.75
426.825	4.22
427.036	4.39
427.247	1.58
427.458	4.61
427.668	1.79
427.879	4.94
428.09	3.83
428.301	2.76
428.511	3.69
428.722	4.41
428.933	3.16
429.143	3.23
429.354	4.18
429.565	2.84
429.775	3.83
429.986	4.6
430.196	4.68
430.407	1.31
430.617	1.21
430.828	4.1
431.038	4.08
431.249	3.96
431.459	3.04
431.669	3.89
431.88	6.16
432.09	4.39
432.3	4.06
432.511	4.02
432.721	4.7
432.931	3.08
433.141	2
433.351	4.96
433.562	4.84
433.772	6.28
433.982	4.35
434.192	6.4
434.402	5.47
434.612	3.19
434.822	4.2
435.032	5.29
435.242	6.83
435.452	3.4
435.662	4.82
435.872	5.51
436.082	4.54
436.292	5.66
436.502	6.28
436.711	4.22
436.921	5.99
437.131	5.94
437.341	3.65
437.551	7.17
437.76	8.8
437.97	4.43
438.18	8.61
438.389	6.99
438.599	6.38
438.808	3.77
439.018	7.25
439.228	6.85
439.437	6.88
439.647	6.74
439.856	8.97
440.066	6.52
440.275	7
440.484	10.36
440.694	7.29
440.903	10.68
441.113	8.06
441.322	10.28
441.531	8.09
441.741	8.9
441.95	9.53
442.159	10.09
442.368	10.11
442.577	10.23
442.787	9.98
442.996	8.82
443.205	8.38
443.414	10.06
443.623	12.99
443.832	11.35
444.041	11.42
444.25	11.41
444.459	12.81
444.668	11.82
444.877	14.17
445.086	13.41
445.295	12.24
445.504	13.09
445.713	13.98
445.922	12.72
446.13	14.45
446.339	13.16
446.548	12.54
446.757	14.6
446.965	12.93
447.174	13.64
447.383	14.9
447.591	15.42
447.8	16.39
448.009	15.81
448.217	16.89
448.426	16.84
448.634	15.86
448.843	16.57
449.051	14.41
449.26	16
449.468	18.52
449.677	18.4
449.885	19.98
450.093	16.86
450.302	15.15
450.51	16.64
450.719	18.82
450.927	17.99
451.135	17.99
451.343	17.22
451.552	17.71
451.76	17.63
451.968	18.34
452.176	17.1
452.384	16.79
452.592	18.45
452.8	18.58
453.009	16.27
453.217	14.52
453.425	13.6
453.633	16.75
453.841	16.49
454.049	15.47
454.257	14.47
454.464	17.74
454.672	15.67
454.88	17.62
455.088	12.61
455.296	16.09
455.504	16.25
455.711	16.03
455.919	15.16
456.127	12.18
456.335	13.83
456.542	12.97
456.75	12.1
456.958	14.31
457.165	15.15
457.373	12.84
457.581	12.94
457.788	8.93
457.996	14.49
458.203	13.34
458.411	13.88
458.618	8.87
458.826	12.67
459.033	14.24
459.24	10.7
459.448	12.16
459.655	13.01
459.863	11.76
460.07	9.52
460.277	9.42
460.484	9.5
460.692	12.33
460.899	9.18
461.106	8.29
461.313	10.77
461.52	7.26
461.728	9.13
461.935	9.7
462.142	9.63
462.349	11.56
462.556	8.73
462.763	9.17
462.97	10.79
463.177	8.6
463.384	6.25
463.591	8.93
463.798	9.16
464.005	6.87
464.212	7.98
464.418	7.15
464.625	5.16
464.832	6.31
465.039	6.72
465.246	6.41
465.452	7.7
465.659	7.36
465.866	8.75
466.072	4.23
466.279	5.71
466.486	4.83
466.692	7.34
466.899	6.52
467.105	1.96
467.312	7.1
467.519	7
467.725	3.9
467.931	4.57
468.138	3.73
468.344	5
468.551	5.59
468.757	4.33
468.964	7.28
469.17	3.11
469.376	6.49
469.583	4.5
469.789	6.29
469.995	1.88
470.201	6.05
470.408	5.97
470.614	4.82
470.82	4.2
471.026	1.74
471.232	1.38
471.438	2.87
471.644	4.28
471.85	4.76
472.056	6.12
472.262	6.39
472.468	4.75
472.674	2.53
472.88	6.23
473.086	1.55
473.292	3.9
473.498	1.5
473.704	2.26
473.91	4.5
474.116	2.95
474.321	3.52
474.527	1.94
474.733	3.04
474.939	1.44
475.144	5.62
475.35	0.43
475.556	2.5
475.761	3.05
475.967	3.52
476.173	3.95
476.378	4.57
476.584	4.67
476.789	3.6
476.995	4.18
477.2	1.47
477.406	5.35
477.611	2.52
477.817	0.49
478.022	2.26
478.227	2.73
478.433	2.74
478.638	2.76
478.843	3.02
479.049	2.76
479.254	1.81
479.459	1
479.664	2.75
479.87	3.26
480.075	1.72
480.28	2.85
480.485	4.21
480.69	2.55
480.895	1.73
481.1	4.29
481.306	4.64
481.511	2.21
481.716	2.7
481.921	2.13
482.126	2.76
482.33	2.84
482.535	2.43
482.74	1.58
482.945	2.18
483.15	0.51
483.355	1.87
483.56	0.42
483.765	1.49
483.969	1.78
484.174	1.99
484.379	1.61
484.583	2.29
484.788	1.02
484.993	2.82
485.197	3.62
485.402	2.6
485.607	2.31
485.811	1.85
486.016	3.4
486.22	3.34
486.425	2.23
486.629	2
486.834	2.23
487.038	2.71
487.243	1.8
487.447	1.66
487.652	2.79
487.856	2.27
488.06	1.29
488.265	1.48
488.469	2.08
488.673	1.74
488.877	1.35
489.082	2.06
489.286	2.28
489.49	1.84
489.694	1.03
489.898	2.3
490.102	1.86
490.307	2.01
490.511	1.74
490.715	1.7
490.919	1.29
491.123	0.79
491.327	2.86
491.531	1.85
491.735	1.63
491.939	2.07
492.143	2.6
492.346	1.84
492.55	1.81
492.754	1.45
492.958	1.82
493.162	0.91
493.366	1.44
493.569	2.07
493.773	1.95
493.977	2.24
494.18	0.62
494.384	1.27
494.588	2.8
494.791	1.41
494.995	1.49
495.199	1.46
495.402	2.31
495.606	0.92
495.809	2.08
496.013	1.28
496.216	1.18
496.42	1.32
496.623	1.18
496.827	1.91
497.03	1.68
497.233	1.36
497.437	1.39
497.64	1.6
497.843	0.58
498.047	1.34
498.25	1.62
498.453	2.19
498.656	1.03
498.86	1.88
499.063	2.34
499.266	0.48
499.469	0.66
499.672	2.16
499.875	1.56
500.078	0.39
500.281	1.44
500.484	0.5
500.687	1.19
500.89	1.59
501.093	1.38
501.296	2.06
501.499	0.47
501.702	2.61
501.905	1.05
502.108	2.08
502.311	1.95
502.514	0.57
502.716	1.75
502.919	1.99
503.122	0.56
503.325	1.85
503.527	0.88
503.73	2.54
503.933	1.42
504.135	1.38
504.338	1.64
504.541	1.6
504.743	1.36
504.946	1.81
505.148	1.53
505.351	1.5
505.553	0.81
505.756	1.94
505.958	2.03
506.161	1.44
506.363	1.12
506.565	1.56
506.768	1.77
506.97	0.59
507.172	1.5
507.375	1.95
507.577	1.11
507.779	1.99
507.982	1.48
508.184	1.29
508.386	1.79
508.588	1.26
508.79	1.58
508.993	2.44
509.195	1.38
509.397	1.91
509.599	1.2
509.801	1.21
510.003	1.43
510.205	1.42
510.407	2.3
510.609	1.36
510.811	1.4
511.013	1.4
511.215	1.11
511.417	1.02
511.618	0.95
511.82	1.73
512.022	0.96
512.224	1.34
512.426	1.15
512.627	1.25
512.829	1.19
513.031	1.32
513.233	2.26
513.434	1.68
513.636	1.85
513.838	1.98
514.039	1.42
514.241	1.26
514.442	1.29
514.644	1.17
514.845	1.46
515.047	1.66
515.248	1.63
515.45	1.44
515.651	1.16
515.853	1.86
516.054	1.31
516.256	1
516.457	2.32
516.658	1.27
516.86	0.99
517.061	1.58
517.262	1.59
517.463	1.23
517.665	1.77
517.866	1.51
518.067	1.75
518.268	2.12
518.469	1.17
518.67	0.83
518.872	0.93
519.073	1.5
519.274	1.45
519.475	1.19
519.676	1.04
519.877	1.49
520.078	1.6
520.279	1.36
520.48	1.29
520.681	1.45
520.881	1.7
521.082	2.38
521.283	1.74
521.484	1.32
521.685	1.57
521.886	1.52
522.086	1.25
522.287	1.48
522.488	1.68
522.689	1.69
522.889	2.03
523.09	1.16
523.291	1.37
523.491	1.68
523.692	1.61
523.892	1.81
524.093	1.6
524.294	1.42
524.494	1.41
524.695	1.71
524.895	2.09
525.096	1.45
525.296	1.66
525.496	1.97
525.697	1.93
525.897	1.5
526.098	1.82
526.298	1.5
526.498	1.6
526.699	1.39
526.899	2.06
527.099	1.65
527.299	1.54
527.499	1.47
527.7	1.89
527.9	1.51
528.1	1.63
528.3	2.35
528.5	1.68
528.7	1.63
528.9	1.41
529.1	1.92
529.3	1.7
529.5	2.1
529.7	1.98
529.9	2.11
530.1	1.82
530.3	1.47
530.5	1.74
530.7	2
530.9	1.95
531.1	1.57
531.3	1.78
531.499	1.46
531.699	1.54
531.899	1.17
532.099	1.89
532.298	1.62
532.498	1.95
532.698	2.12
532.897	1.83
533.097	1.89
533.297	1.81
533.496	2.18
533.696	2.16
533.895	1.61
534.095	2.08
534.294	1.88
534.494	1.45
534.693	1.66
534.893	2
535.092	1.43
535.292	1.95
535.491	1.86
535.69	1.62
535.89	1.48
536.089	2.17
536.288	1.71
536.488	1.62
536.687	2.05
536.886	1.78
537.085	2.25
537.285	1.97
537.484	2.01
537.683	1.76
537.882	1.93
538.081	2.33
538.28	1.83
538.479	1.76
538.678	2.06
538.877	2.01
539.076	2.27
539.275	2.16
539.474	1.71
539.673	2.12
539.872	2.13
540.071	1.96
540.27	2.37
540.469	2.14
540.668	2.3
540.867	2.07
541.065	2.31
541.264	2.26
541.463	1.95
541.662	1.9
541.861	2.41
542.059	1.77
542.258	2.13
542.457	2.45
542.655	2.13
542.854	2.27
543.052	2.27
543.251	2.41
543.45	2.34
543.648	2.38
543.847	2.62
544.045	1.89
544.244	2.54
544.442	2.53
544.641	2.01
544.839	2.35
545.037	2.33
545.236	2.23
545.434	2.46
545.632	2.45
545.831	2.46
546.029	2.14
546.227	2.56
546.426	2.41
546.624	2.42
546.822	2.37
547.02	1.99
547.218	2.61
547.417	2.13
547.615	2.4
547.813	2.64
548.011	2.88
548.209	2.94
548.407	2.85
548.605	2.67
548.803	2.54
549.001	2.55
549.199	2.52
549.397	2.8
549.595	2.94
549.793	2.64
549.991	2.61
550.189	3.06
550.387	2.84
550.584	3.06
550.782	2.81
550.98	2.81
551.178	3.16
551.376	2.92
551.573	2.6
551.771	2.6
551.969	3.11
552.166	2.67
552.364	2.74
552.562	2.64
552.759	3.16
552.957	2.75
553.154	2.99
553.352	2.96
553.55	3.12
553.747	3.08
553.945	3.37
554.142	3.01
554.339	3.24
554.537	3.19
554.734	3.29
554.932	3.18
555.129	2.94
555.326	2.96
555.524	3.13
555.721	3.1
555.918	3.06
556.116	2.99
556.313	3.4
556.51	3.25
556.707	3.5
556.904	2.91
557.102	3.42
557.299	3.29
557.496	3.33
557.693	3.55
557.89	3.52
558.087	3.52
558.284	3.44
558.481	3.72
558.678	3.39
558.875	3.36
559.072	3.59
559.269	3.97
559.466	3.36
559.663	3.86
559.86	3.71
560.057	3.86
560.254	3.29
560.45	3.36
560.647	3.37
560.844	3.58
561.041	3.77
561.237	3.54
561.434	3.8
561.631	3.8
561.828	3.62
562.024	3.59
562.221	3.79
562.418	3.77
562.614	4
562.811	3.86
563.007	4.09
563.204	4.26
563.4	3.92
563.597	3.82
563.793	3.81
563.99	4.21
564.186	4.21
564.383	4.09
564.579	4.21
564.775	4.29
564.972	4.6
565.168	4.58
565.365	4.59
565.561	4.61
565.757	4.42
565.953	4.34
566.15	4.45
566.346	4.6
566.542	4.67
566.738	4.58
566.934	4.6
567.131	4.77
567.327	4.89
567.523	4.61
567.719	4.88
567.915	5
568.111	4.79
568.307	5.26
568.503	4.9
568.699	4.8
568.895	5.21
569.091	5.42
569.287	5.38
569.483	5.38
569.679	5.55
569.875	5.12
570.07	4.79
570.266	5.44
570.462	5.15
570.658	5.1
570.854	5.04
571.049	5.27
571.245	5.28
571.441	5.4
571.636	5.43
571.832	6.02
572.028	5.58
572.223	5.57
572.419	5.31
572.615	5.86
572.81	5.73
573.006	5.86
573.201	5.84
573.397	5.84
573.592	5.96
573.788	5.82
573.983	5.71
574.179	6.17
574.374	6.17
574.569	6.12
574.765	6.15
574.96	6.17
575.156	6.02
575.351	5.9
575.546	6.61
575.741	6.53
575.937	6.45
576.132	6.8
576.327	6.29
576.522	6.53
576.718	6.7
576.913	6.58
577.108	7.11
577.303	6.97
577.498	6.57
577.693	6.78
577.888	6.95
578.083	6.97
578.278	6.98
578.473	7.28
578.668	7.01
578.863	7.24
579.058	7.55
579.253	7.13
579.448	7.27
579.643	7.39
579.838	7.4
580.033	7.11
580.227	7.41
580.422	7.48
580.617	7.67
580.812	7.69
581.006	7.65
581.201	7.92
581.396	7.47
581.591	7.92
581.785	8.14
581.98	8.09
582.175	8.19
582.369	8.55
582.564	8.21
582.758	8.35
582.953	8.6
583.147	8.7
583.342	8.21
583.536	8.45
583.731	8.61
583.925	9.15
584.12	8.72
584.314	8.64
584.509	8.76
584.703	8.81
584.897	9.08
585.092	9
585.286	9.23
585.48	9.22
585.674	9.35
585.869	8.81
586.063	9.22
586.257	9
586.451	9.29
586.646	9.12
586.84	9.27
587.034	9.16
587.228	9.32
587.422	10.03
587.616	9.71
587.81	9.66
588.004	10.09
588.198	9.85
588.392	9.86
588.586	10.12
588.78	10.53
588.974	10.39
589.168	10.42
589.362	10.68
589.556	10.97
589.75	11.05
589.944	11.19
590.137	10.87
590.331	11.03
590.525	10.81
590.719	10.88
590.913	11.35
591.106	11.44
591.3	11.03
591.494	11.68
591.687	11.11
591.881	11.38
592.075	11.75
592.268	11.36
592.462	11.55
592.655	11.2
592.849	11.47
593.043	11.81
593.236	11.42
593.43	11.38
593.623	11.2
593.817	11.28
594.01	11.32
594.203	12.17
594.397	11.66
594.59	12.07
594.784	12.06
594.977	11.91
595.17	12.32
595.364	12.48
595.557	12.43
595.75	12.54
595.943	12.66
596.137	12.84
596.33	12.64
596.523	13.08
596.716	13.19
596.909	13.24
597.102	13.4
597.296	13.17
597.489	13.5
597.682	13.13
597.875	13.16
598.068	13.08
598.261	12.69
598.454	12.81
598.647	13.26
598.84	13.05
599.033	12.97
599.226	13.01
599.419	13.12
599.611	13.65
599.804	13.79
599.997	13.76
600.19	14.11
600.383	14.1
600.576	13.76
600.768	13.97
600.961	13.37
601.154	13.53
601.347	14.17
601.539	14.55
601.732	14.66
601.925	14.92
602.117	15.38
602.31	14.94
602.502	14.72
602.695	14.76
602.888	14.56
603.08	14.51
603.273	14.74
603.465	14.94
603.658	14.81
603.85	15.01
604.043	14.63
604.235	14.27
604.427	14.96
604.62	14.78
604.812	15.05
605.004	14.41
605.197	14.91
605.389	15.01
605.581	14.79
605.774	15.08
605.966	15.27
606.158	15.07
606.35	15.17
606.543	15.61
606.735	15.65
606.927	15.63
607.119	16.03
607.311	15.69
607.503	15.2
607.695	15.69
607.887	16.09
608.079	16.05
608.271	16.04
608.463	16.34
608.655	16.27
608.847	16.43
609.039	16.49
609.231	16.59
609.423	16.38
609.615	15.94
609.807	16.45
609.999	16.3
610.191	16.38
610.382	16.39
610.574	16.65
610.766	16.61
610.958	16.5
611.15	16.09
611.341	16.6
611.533	16.7
611.725	16.56
611.916	16.71
612.108	16.85
612.3	16.62
612.491	16.95
612.683	16.91
612.874	16.89
613.066	17.28
613.257	17.45
613.449	17.15
613.64	16.86
613.832	16.84
614.023	16.63
614.215	17.07
614.406	17.32
614.598	17.39
614.789	17.65
614.98	18.03
615.172	17.1
615.363	17.36
615.554	16.63
615.746	16.36
615.937	16.78
616.128	16.68
616.319	16.93
616.511	16.92
616.702	17.22
616.893	17.54
617.084	17.6
617.275	17.38
617.466	17.26
617.658	17.04
617.849	17.48
618.04	17.17
618.231	17.3
618.422	17.59
618.613	17.86
618.804	17.72
618.995	17.82
619.186	17.52
619.377	17.59
619.568	17.56
619.758	17.94
619.949	17.19
620.14	16.9
620.331	17.32
620.522	17.25
620.713	17.19
620.903	17.8
621.094	17.21
621.285	17.86
621.476	17.64
621.666	17.76
621.857	17.68
622.048	17.96
622.238	18
622.429	18.29
622.62	18.59
622.81	18.73
623.001	18.75
623.191	18.9
623.382	18.3
623.572	18.02
623.763	17.82
623.953	17.98
624.144	18.1
624.334	17.99
624.525	18.25
624.715	18.47
624.905	18.51
625.096	18.72
625.286	18.16
625.477	18.37
625.667	18.47
625.857	18.43
626.047	18.12
626.238	18.23
626.428	18.34
626.618	17.76
626.808	17.8
626.999	18.41
627.189	18.43
627.379	18.35
627.569	18.15
627.759	18.43
627.949	17.96
628.139	18.26
628.329	18.19
628.519	18.35
628.709	17.9
628.899	17.61
629.089	17.43
629.279	17.83
629.469	17.57
629.659	17.81
629.849	18.22
630.039	17.8
630.229	18.14
630.419	18.27
630.609	18.03
630.798	17.98
630.988	18.04
631.178	17.39
631.368	17.76
631.557	18.21
631.747	18.08
631.937	17.89
632.127	18.57
632.316	18.23
632.506	18.14
632.696	18.25
632.885	18.12
633.075	18.32
633.264	18.4
633.454	18.03
633.643	17.98
633.833	18.25
634.022	18.56
634.212	18.08
634.401	18.06
634.591	18.09
634.78	17.92
634.97	18.13
635.159	17.94
635.348	17.71
635.538	17.74
635.727	17.92
635.916	17.75
636.106	17.78
636.295	18.23
636.484	17.75
636.674	18.03
636.863	17.45
637.052	17.36
637.241	17.47
637.43	17.44
637.619	17.42
637.809	17.7
637.998	17.88
638.187	17.97
638.376	18.03
638.565	18.32
638.754	17.98
638.943	18.13
639.132	17.95
639.321	17.71
639.51	17.15
639.699	16.91
639.888	17.11
640.077	17.24
640.266	16.93
640.455	17.34
640.643	17.4
640.832	17
641.021	17.15
641.21	17.45
641.399	16.99
641.587	17.15
641.776	17.55
641.965	17.57
642.154	17.49
642.342	16.97
642.531	17.7
642.72	17.43
642.908	17.79
643.097	17.69
643.286	18.01
643.474	17.75
643.663	17.42
643.851	17.42
644.04	17.31
644.228	17.16
644.417	17.65
644.605	16.91
644.794	16.91
644.982	17.18
645.171	17.23
645.359	17.36
645.547	17.67
645.736	17.13
645.924	16.77
646.112	16.88
646.301	17.09
646.489	16.34
646.677	16.65
646.866	16.47
647.054	17.11
647.242	17.05
647.43	17.28
647.618	17.13
647.807	17.39
647.995	17.36
648.183	17.15
648.371	17.08
648.559	16.87
648.747	16.93
648.935	16.97
649.123	17.22
649.311	17.36
649.499	17.43
649.687	17.15
649.875	16.78
650.063	17.03
650.251	17.1
650.439	16.97
650.627	17.17
650.815	17.06
651.003	16.66
651.191	16.2
651.378	16.42
651.566	16.99
651.754	16.84
651.942	16.83
652.13	16.83
652.317	17
652.505	17.09
652.693	17.02
652.88	16.91
653.068	16.52
653.256	16.67
653.443	16.88
653.631	16.57
653.819	16.95
654.006	16.78
654.194	17
654.381	16.93
654.569	16.77
654.756	16.48
654.944	16.68
655.131	16.73
655.319	17.07
655.506	16.64
655.693	16.75
655.881	17.07
656.068	16.83
656.256	16.82
656.443	16.66
656.63	17
656.818	16.51
657.005	16.83
657.192	16.76
657.379	16.8
657.567	16.86
657.754	16.76
657.941	16.72
658.128	16.19
658.315	16.2
658.502	16.2
658.69	16.53
658.877	17.1
659.064	16.51
659.251	16.71
659.438	16.7
659.625	16.73
659.812	17.07
659.999	16.76
660.186	17.12
660.373	16.96
660.56	16.74
660.747	16.48
660.934	17.3
661.121	16.63
661.308	16.53
661.494	16.6
661.681	16.06
661.868	16.94
662.055	16.56
662.242	16.29
662.428	16.65
662.615	17.3
662.802	17.17
662.989	17.48
663.175	17.68
663.362	18
663.549	18
663.735	17.65
663.922	17.46
664.109	17.2
664.295	17.62
664.482	16.9
664.668	16.99
664.855	17.54
665.041	17.06
665.228	16.88
665.414	17.47
665.601	17.28
665.787	17.19
665.974	16.81
666.16	16.7
666.347	16.06
666.533	16.82
666.719	16.84
666.906	16.53
667.092	16.52
667.278	16.84
667.465	16.52
667.651	16.65
667.837	16.95
668.023	16.56
668.21	16.7
668.396	16.26
668.582	16.62
668.768	15.95
668.954	16.46
669.14	16.3
669.327	16.76
669.513	16.75
669.699	17.35
669.885	17.12
670.071	16.89
670.257	17.32
670.443	17.22
670.629	17.01
670.815	16.65
671.001	16.92
671.187	16.78
671.373	17
671.559	16.69
671.744	16.75
671.93	16.97
672.116	17.5
672.302	17.4
672.488	17.34
672.674	18.04
672.859	17.83
673.045	17.9
673.231	16.96
673.417	16.84
673.602	16.67
673.788	17.31
673.974	16.72
674.159	17.17
674.345	16.87
674.531	16.87
674.716	16.98
674.902	16.89
675.087	17.29
675.273	17.41
675.459	17.6
675.644	17.17
675.83	17.12
676.015	16.86
676.2	16.82
676.386	16.6
676.571	16.56
676.757	16.46
676.942	17.12
677.128	16.39
677.313	16.44
677.498	16.1
677.684	16.73
677.869	16.79
678.054	17.16
678.24	17.17
678.425	17.09
678.61	17.2
678.795	17.55
678.98	17.04
679.166	17.55
679.351	16.98
679.536	16.76
679.721	17.34
679.906	17.2
680.091	16.63
680.276	17.18
680.461	17.33
680.647	17.33
680.832	17.55
681.017	17.32
681.202	17.58
681.387	17.25
681.572	17.29
681.756	16.92
681.941	16.93
682.126	16.8
682.311	16.91
682.496	16.77
682.681	17.05
682.866	17.09
683.051	16.72
683.235	16.85
683.42	17.4
683.605	17.2
683.79	17.19
683.974	17.35
684.159	17.36
684.344	17.18
684.529	16.75
684.713	17.11
684.898	17.01
685.083	16.88
685.267	16.94
685.452	17.29
685.636	17.62
685.821	17.07
686.005	17.56
686.19	16.92
686.375	17.55
686.559	17.59
686.744	16.74
686.928	16.86
687.112	16.91
687.297	16.69
687.481	16.49
687.666	15.95
687.85	16.56
688.034	16.65
688.219	16.55
688.403	16.71
688.587	16.28
688.772	17.16
688.956	16.35
689.14	16.66
689.324	17.77
689.509	17.35
689.693	16.59
689.877	16.85
690.061	16.81
690.245	16.42
690.43	16.2
690.614	16.61
690.798	16.28
690.982	16.61
691.166	16.54
691.35	16.47
691.534	16.65
691.718	16.26
691.902	16.03
692.086	16.09
692.27	16.35
692.454	16.53
692.638	16.51
692.822	16.42
693.006	17.34
693.19	17.12
693.373	16.9
693.557	16.81
693.741	16.94
693.925	16.99
694.109	16.45
694.293	16.42
694.476	16.64
694.66	17.08
694.844	16.58
695.027	16.7
695.211	16.27
695.395	17
695.578	17.1
695.762	16.84
695.946	17.03
696.129	16.22
696.313	16.45
696.497	16.92
696.68	16.57
696.864	16.29
697.047	17.08
697.231	16.64
697.414	16.28
697.598	16.22
697.781	15.98
697.965	15.77
698.148	15.39
698.331	16.02
698.515	16.27
698.698	16.62
698.881	16.53
699.065	16.14
699.248	16.16
699.431	16.43
699.615	16.41
699.798	15.88
699.981	16.11
700.165	16.21
700.348	15.99
700.531	16.41
700.714	16.24
700.897	16.21
701.08	16.03
701.264	16.15
701.447	15.95
701.63	15.89
701.813	16.17
701.996	15.96
702.179	16.08
702.362	16.18
702.545	16.03
702.728	15.73
702.911	16.31
703.094	16.48
703.277	16.18
703.46	16.77
703.643	16.9
703.826	16.3
704.009	16.4
704.191	15.94
704.374	15.81
704.557	16.34
704.74	16.13
704.923	15.8
705.106	15.12
705.288	15.03
705.471	15.31
705.654	15.53
705.837	15.49
706.019	15.51
706.202	15.8
706.385	16.14
706.567	15.41
706.75	15.65
706.932	15.66
707.115	15.66
707.298	15.22
707.48	15.16
707.663	14.99
707.845	15.53
708.028	15.75
708.21	15.7
708.393	15.66
708.575	15.33
708.758	15.75
708.94	15.95
709.123	16.02
709.305	15.91
709.487	16.01
709.67	15.99
709.852	15.65
710.034	15.53
710.217	15.59
710.399	15.35
710.581	15.42
710.764	15.65
710.946	15.56
711.128	14.93
711.31	14.98
711.492	15.03
711.675	15.53
711.857	15.62
712.039	15.31
712.221	15.62
712.403	15.17
712.585	15.18
712.767	15.31
712.949	15.25
713.131	15.9
713.314	15.43
713.496	15.5
713.678	15.52
713.86	15.38
714.041	15.44
714.223	15.07
714.405	14.97
714.587	14.95
714.769	14.73
714.951	15.45
715.133	15.05
715.315	15.24
715.497	15.64
715.678	15.65
715.86	15.9
716.042	14.88
716.224	15.35
716.406	14.82
716.587	15.25
716.769	15.26
716.951	15.25
717.132	14.67
717.314	15.19
717.496	14.86
717.677	14.92
717.859	14.47
718.041	14.54
718.222	14.46
718.404	14.66
718.585	15.02
718.767	14.76
718.948	15.08
719.13	15.07
719.311	14.99
719.493	15.21
719.674	15.22
719.856	15.02
720.037	14.77
720.219	15.2
720.4	15.02
720.581	14.86
720.763	14.91
720.944	14.33
721.125	14.9
721.307	14.43
721.488	15.07
721.669	14.84
721.85	14.8
722.032	14.49
722.213	14.69
722.394	14.81
722.575	14.34
722.756	15.03
722.938	14.56
723.119	14.52
723.3	14.25
723.481	14.45
723.662	14.54
723.843	14.27
724.024	14.21
724.205	14.67
724.386	14.42
724.567	14.55
724.748	14.53
724.929	14.84
725.11	14.89
725.291	15.02
725.472	14.83
725.653	15.3
725.834	14.97
726.015	14.76
726.196	15.02
726.377	14.31
726.557	14.26
726.738	14.89
726.919	14.07
727.1	14.36
727.281	14.48
727.461	14.57
727.642	14.9
727.823	14.29
728.004	14.74
728.184	15.02
728.365	14.81
728.546	14.46
728.726	14.48
728.907	14.39
729.087	13.87
729.268	14.58
729.449	14.4
729.629	14.08
729.81	14.15
729.99	13.66
730.171	13.39
730.351	13.47
730.532	13.73
730.712	13.62
730.893	13.86
731.073	13.42
731.253	13.29
731.434	13.44
731.614	13.44
731.795	13.07
731.975	13.53
732.155	13.51
732.336	13.94
732.516	13.89
732.696	13.71
732.876	13.66
733.057	13.55
733.237	13.01
733.417	13.28
733.597	13.11
733.778	13.06
733.958	12.91
734.138	13.16
734.318	12.94
734.498	13.13
734.678	12.8
734.858	13.21
735.038	14.03
735.218	13.44
735.398	13.41
735.579	13.8
735.759	13.4
735.939	13.43
736.119	13.78
736.298	13.88
736.478	13.63
736.658	13.31
736.838	13.34
737.018	13.35
737.198	13.72
737.378	13.37
737.558	13.58
737.738	13.97
737.917	13.38
738.097	13.39
738.277	13.57
738.457	13.19
738.637	12.68
738.816	12.33
738.996	13.3
739.176	13.09
739.355	13.43
739.535	13.34
739.715	12.87
739.894	13
740.074	12.59
740.254	12.85
740.433	12.11
740.613	12.75
740.792	13.1
740.972	12.34
741.151	12.25
741.331	12.39
741.51	12.53
741.69	13.19
741.869	13.63
742.049	13.66
742.228	13
742.408	13.58
742.587	13.12
742.766	13.16
742.946	13.52
743.125	13.31
743.305	13.14
743.484	12.78
743.663	13.21
743.842	12.78
744.022	12.86
744.201	13
744.38	12.84
744.56	12.92
744.739	12.21
744.918	12.54
745.097	13.24
745.276	12.7
745.455	11.85
745.635	12.49
745.814	12.67
745.993	13.11
746.172	13.02
746.351	12.88
746.53	12.42
746.709	12.57
746.888	12.44
747.067	12.39
747.246	12.24
747.425	12.11
747.604	12.48
747.783	12.59
747.962	12.28
748.141	12.78
748.32	12.85
748.499	12.87
748.677	12.36
748.856	12.28
749.035	12.19
749.214	12.73
749.393	12.89
749.572	11.95
749.75	12.33
749.929	13.2
750.108	12.47
750.287	13.08
750.465	12.22
750.644	12.98
750.823	12.19
751.001	12.77
751.18	12.37
751.359	12.08
751.537	12.2
751.716	11.68
751.894	11.62
752.073	11.49
752.251	11.56
752.43	12.43
752.609	12.39
752.787	12.32
752.966	12.66
753.144	12.41
753.322	11.43
753.501	11.59
753.679	11.62
753.858	11.63
754.036	11.28
754.215	11.35
754.393	11.71
754.571	10.82
754.75	11.16
754.928	11.3
755.106	11.63
755.284	12.1
755.463	11.94
755.641	11.44
755.819	12.27
755.997	12.21
756.176	12.03
756.354	12.08
756.532	12.31
756.71	12.17
756.888	12.29
757.066	12.27
757.245	11.64
757.423	11.55
757.601	11.1
757.779	11.12
757.957	11.28
758.135	11.41
758.313	12.12
758.491	11.82
758.669	11.61
758.847	11.52
759.025	11.23
759.203	11.73
759.381	11.59
759.559	11.87
759.737	11.36
759.915	11.43
760.092	11.24
760.27	10.96
760.448	11.33
760.626	11.25
760.804	11.52
760.981	11.41
761.159	11.14
761.337	11.57
761.515	11.52
761.692	11.38
761.87	10.77
762.048	10.79
762.226	11.27
762.403	11.49
762.581	11.04
762.759	10.81
762.936	11.45
763.114	11.77
763.291	11.94
763.469	10.94
763.647	11.88
763.824	11.58
764.002	11.18
764.179	11.71
764.357	11.32
764.534	11
764.712	10.98
764.889	10.7
765.066	11.8
765.244	10.08
765.421	10.64
765.599	11.01
765.776	10.4
765.953	10.63
766.131	11.05
766.308	10.89
766.485	11.19
766.663	10.78
766.84	10.95
767.017	10.42
767.194	10.26
767.372	10.75
767.549	10.36
767.726	11.29
767.903	11.31
768.081	11.25
768.258	11.26
768.435	10.65
768.612	10.44
768.789	11.16
768.966	10.82
769.143	10.28
769.32	11.07
769.497	11.19
769.674	10.77
769.851	10.19
770.028	10.19
770.205	11.44
770.382	10.17
770.559	10.45
770.736	11.02
770.913	11.08
771.09	12.69
771.267	10.78
771.444	11.16
771.621	11
771.798	11.09
771.975	11.17
772.151	11.38
772.328	11.33
772.505	10.27
772.682	10.89
772.859	10.9
773.035	11.16
773.212	10.45
773.389	10.56
773.565	10.66
773.742	10.64
773.919	9.93
774.096	10.79
774.272	10.52
774.449	10.45
774.625	10.13
774.802	9.57
774.979	10.57
775.155	10.21
775.332	10.3
775.508	11.95
775.685	10.79
775.861	11.13
776.038	10.58
776.214	10.08
776.391	10.57
776.567	9.82
776.744	11.34
776.92	10.6
777.096	10.15
777.273	10.8
777.449	10.24
777.626	8.59
777.802	11.06
777.978	9.83
778.155	10.31
778.331	10.78
778.507	9.91
778.683	9.06
778.86	9.85
779.036	10.07
779.212	10.7
779.388	10.18
779.565	8.67
779.741	10.1
779.917	10.19
780.093	8.92
780.269	8.51
780.445	9.5
780.621	11.07
780.797	9.54
780.974	9.71
781.15	9.39
781.326	10.29
781.502	9.4
781.678	9.98
781.854	9.91
782.03	8.36
782.206	9.7
782.382	11.08
782.558	9.96
782.733	9.93
782.909	9.83
783.085	11.29
783.261	9.54
783.437	7.65
783.613	8.95
783.789	11.59
783.965	9.63
784.14	9.55
784.316	8.65
784.492	9.08
784.668	10.01
784.843	9.57
785.019	9.98
785.195	8.85
785.371	10.08
785.546	9.63
785.722	9.68
785.898	9.72
786.073	9.98
786.249	10.8
786.424	10.34
786.6	8.85
786.776	10.95
786.951	8.71
787.127	10.5
787.302	10.17
787.478	8.43
787.653	7.77
787.829	8.91
788.004	9.8
788.18	10.31
788.355	10.42
788.531	8.91
788.706	10.08
788.881	9.12
789.057	11.73
789.232	8.59
789.408	10.85
789.583	10.07
789.758	9.18
789.934	8.54
790.109	8.73
790.284	11.11
790.459	9.98
790.635	9.93
790.81	8.32
790.985	8.35
791.16	8.79
791.336	9.39
791.511	10.13
791.686	8.47
791.861	10.68
792.036	11.56
792.211	10.79
792.387	10.27
792.562	8.13
792.737	8.99
792.912	8.14
793.087	10
793.262	8.22
793.437	9.05
793.612	10.34
793.787	10.6
793.962	8.93
794.137	9.3
794.312	9.48
794.487	8.59
794.662	10.52
794.837	9.21
795.011	7.33
795.186	9.89
795.361	8.3
795.536	9.45
795.711	7.61
795.886	9.91
796.06	6.9
796.235	10.81
796.41	9.28
796.585	10.67
796.76	6.41
796.934	9.65
797.109	10.39
797.284	10.42
797.458	10.06
797.633	11.34
797.808	9.78
797.982	11.33
798.157	10.98
798.332	9.78
798.506	10.83
798.681	6.35
798.855	9.48
799.03	9.67
799.204	11.6
799.379	8.75
799.553	9.12
799.728	4.87
799.902	8.4
800.077	11.01
800.251	10.28
800.426	9.02
800.6	9.22
800.775	9.22
800.949	8.85
801.123	9.84
801.298	10.01
801.472	9.22
801.647	9.85
801.821	7.69
801.995	9.08
802.169	7.73
802.344	8.5
802.518	11.19
802.692	7.62
802.867	10.73
803.041	8.34
803.215	10.48
803.389	8.37
803.563	7.9
803.737	8.61
803.912	9.76
804.086	11.62
804.26	11.85
804.434	5.7
804.608	7.68
804.782	11.84
804.956	10.24
805.13	7.93
805.304	8.38
805.478	9.26
805.652	10.08
805.826	13.89
806	9.19
806.174	8.51
806.348	10.85
806.522	9.12
806.696	7.12
806.87	10.49
807.044	8.52
807.218	9.88
807.392	12.07
807.566	5.65
807.739	12.01
807.913	10.88
808.087	11.07
808.261	7.97
808.435	9.67
808.608	6.73
808.782	6.3
808.956	6.03
809.13	5.76
809.303	9.2
809.477	9.02
809.651	10.31
809.824	10.7
809.998	8.31
810.172	10.7
810.345	10.62
810.519	9.04
810.692	9.07
810.866	7.25
811.04	6.53
811.213	8.85
811.387	6.73
811.56	10.89
811.734	10.11
811.907	7.57
812.081	7.58
812.254	8.6
812.428	9.07
812.601	9.14
812.774	9.91
812.948	8.81
813.121	10.21
813.295	7.41
813.468	11.13
813.641	7.35
813.815	9.96
813.988	11.59
814.161	9.07
814.335	13.17
814.508	7.06
814.681	9.1
814.854	8.73
815.028	8.66
815.201	10.72
815.374	8.57
815.547	8.17
815.72	11.09
815.894	11.25
816.067	8.64
816.24	12.25
816.413	11.39
816.586	9.65
816.759	11.38
816.932	9.23
817.105	8.48
817.278	10.6
817.452	11.03
817.625	7.83
817.798	10.27
817.971	10.03
818.144	7.06
818.317	13.68
818.49	6.94
818.662	9.14
818.835	11.45
819.008	6.73
819.181	8.18
819.354	10.88
819.527	10.46
819.7	8.03
819.873	10.27
820.046	5.75
820.218	9.91
820.391	6.73
820.564	8.69
820.737	6.76
820.909	12.72
821.082	11.21
821.255	7.79
821.428	11.48
821.6	9.35
821.773	7.99
821.946	10.1
822.118	10.7
822.291	13.49
822.464	7.61
822.636	8.61
822.809	8.54
822.982	4.54
823.154	12.88
823.327	11.06
823.499	4.48
823.672	8.76
823.844	5.09
824.017	10.37
824.189	8.23
824.362	12.9
824.534	10.61
824.707	10.91
824.879	9.09
825.052	7.84
825.224	11.37
825.396	9.22
825.569	13.65
825.741	9.11
825.914	10.37
826.086	11.69
826.258	8
826.431	11.76
826.603	11.05
826.775	11.82
826.947	8.41
827.12	11.92
827.292	11.47
827.464	6.69
827.636	5.06
827.809	11.16
827.981	11.29
828.153	8.76
828.325	3.57
828.497	8.51
828.669	8.02
828.842	6.25
829.014	7.65
829.186	6.67
829.358	9.94
829.53	10.34
829.702	8.17
829.874	11.12
830.046	8.27
830.218	10.67
830.39	7.65
830.562	12.2
830.734	13.31
830.906	7.28
831.078	9.05
831.25	10.68
831.422	4.67
831.594	8.9
831.766	9.92
831.937	4.33
832.109	9.71
832.281	7.64
832.453	10.05
832.625	7.9
832.797	11.32
832.968	7.56
833.14	6.69
833.312	8.45
833.484	11.1
833.655	12.86
833.827	6.19
833.999	5.81
834.171	8.92
834.342	11.78
834.514	7.45
834.686	12.33
834.857	8.81
835.029	4.71
835.2	9.42
835.372	6.68
835.544	12.51
835.715	5.75
835.887	9.82
836.058	6.81
836.23	13.36
836.401	7.12
836.573	10.58
836.744	7.02
836.916	6.58
837.087	9.33
837.259	8.47
837.43	10.55
837.602	7.99
837.773	7.36
837.945	8.86
838.116	6.47
838.287	4.7
838.459	7.8
838.63	5.3
838.801	11.91
838.973	4.19
839.144	8.93
839.315	10.13
839.487	9.84
839.658	11.99
839.829	11.69
840	8.79
840.172	7.32
840.343	9.86
840.514	14.33
840.685	9.26
840.856	7.58
841.027	9.79
841.199	13.29
841.37	3.66
841.541	4.06
841.712	13.56
841.883	12.03
842.054	11.82
842.225	11.57
842.396	9.39
842.567	3.59
842.738	10.37
842.909	13.37
843.08	9.66
843.251	8.36
843.422	9.14
843.593	9.97
843.764	7.22
843.935	6.68
844.106	7.65
844.277	12.95
844.448	9.32
844.619	9.73
844.79	10.89
844.96	9.03
845.131	11.07
845.302	7.76
845.473	10.84
845.644	8.68
845.814	7.79
845.985	11.73
846.156	8.29
846.327	3.72
846.497	6.07
846.668	3.01
846.839	5.86
847.01	13.45
847.18	7.16
847.351	13.47
847.522	13.63
847.692	13.65
847.863	9.37
848.033	12.59
848.204	9.83
848.375	8.88
848.545	12.54
848.716	6.17
848.886	13.27
849.057	12.99
849.227	7.86
849.398	7.51
849.568	12.21
849.739	14.47
849.909	9.89
850.08	6.89
850.25	10.62
850.421	8.27
850.591	14.25
850.761	6.88
850.932	5.31
851.102	8.09
851.272	9.49
851.443	12.55
851.613	9.97
851.783	10.01
851.954	10.1
852.124	12.88
852.294	5.51
852.465	11.55
852.635	7.95
852.805	10.12
852.975	7.35
853.145	6.62
853.316	5.94
853.486	9.41
853.656	11.57
853.826	2.27
853.996	12.62
854.166	10.4
854.337	6.25
854.507	8.26
854.677	12.45
854.847	12.52
855.017	9.96
855.187	12.42
855.357	2.15
855.527	8.04
855.697	6.03
855.867	2.29
856.037	8.68
856.207	10.09
856.377	11.97
856.547	10.36
856.717	14.77
856.887	11.24
857.057	13.19
857.227	10.41
857.397	13.89
857.566	11.66
857.736	7.36
857.906	9.27
858.076	7.04
858.246	3.14
858.416	6.02
858.585	4.15
858.755	5.57
858.925	7.52
859.095	8.43
859.264	18.13
859.434	6.59
859.604	11.37
859.774	2.35
859.943	14.54
860.113	4.03
860.283	12.68
860.452	6.62
860.622	14.42
860.791	12.43
860.961	11.65
861.131	6.52
861.3	6.95
861.47	8.2
861.639	-0.01
861.809	13.9
861.978	8.64
862.148	16.92
862.318	11.48
862.487	2.76
862.657	6.16
862.826	4.75
862.995	9.22
863.165	20.68
863.334	10.06
863.504	10.29
863.673	8.84
863.843	8.92
864.012	18.42
864.181	10.88
864.351	4.36
864.52	1.2
864.689	6.46
864.859	6.67
865.028	9.23
865.197	2.94
865.366	13.32
865.536	7.93
865.705	13.71
865.874	5.65
866.043	5.07
866.213	7.88
866.382	4.71
866.551	2.64
866.72	16.37
866.889	12.07
867.059	-0.02
867.228	9.87
867.397	3.91
867.566	-0.23
867.735	12.16
867.904	1.99
868.073	9.52
868.242	15.38
868.411	7.02
868.58	11.07
868.749	9.89
868.918	1.08
869.087	6.7
869.256	7.69
869.425	13.17
869.594	8.61
869.763	12.71
869.932	7.46
870.101	1.6
870.27	4.86
870.439	5.67
870.608	9.7
870.777	9.93
870.945	8.74
871.114	13.83
871.283	9.63
871.452	12.53
871.621	13.89
871.789	3.34
871.958	15.99
872.127	8.39
872.296	10.07
872.464	19.22
872.633	12.69
872.802	9.95
872.971	10.08
873.139	-0.27
873.308	6.8
873.477	3.73
873.645	12.96
873.814	14.65
873.983	-10.14
874.151	14.22
874.32	14
874.488	20.35
874.657	5.21
874.826	12.02
874.994	16.56
875.163	4.08
875.331	16.02
875.5	20.39
875.668	11.34
875.837	2.22
876.005	7.95
876.174	4.59
876.342	5.66
876.51	15.14
876.679	11.08
876.847	7.85
877.016	5.11
877.184	10.17
877.352	11.2
877.521	16.68
877.689	-3.54
877.857	12.47
878.026	7.47
878.194	16.76
878.362	15.06
878.531	4.64
878.699	-0.6
878.867	3.17
879.036	-1.65
879.204	13.32
879.372	7.39
879.54	7.33
879.708	11.57
879.877	17.99
880.045	15.32
880.213	6.93
880.381	16.54
880.549	16.77
880.717	20.37
880.885	15.92
881.054	2.05
881.222	16.28
881.39	13.04
881.558	21.56
881.726	-8.4
881.894	11.4
882.062	7.9
882.23	7.01
882.398	9
882.566	-2.16
882.734	14.88
882.902	13.44
883.07	5.32
883.238	8.4
883.406	6.47
883.574	0.66
883.741	7.69
883.909	1.91
884.077	21.48
884.245	23.08
884.413	-4.08
884.581	17.91
884.749	12.17
884.916	-6.97
885.084	17.36
885.252	4.28
885.42	5.48
885.587	24.38
885.755	14.79
885.923	13.63
886.091	1.55
886.258	4.08
886.426	2.96
886.594	-10.29
886.761	14.2
886.929	15.37
887.097	15.04
887.264	8.45
887.432	20.09
887.6	-4.67
887.767	11.62
887.935	14.15
888.102	10.84
888.27	16.96
888.438	16.2
888.605	-4.62
888.773	6.02
888.94	9.35
889.108	-3.41
889.275	12.76
889.443	16.37
889.61	10.34
889.778	15.23
889.945	-2.83
890.112	2.43
890.28	10.74
890.447	22.92
890.615	10.71
890.782	24.59
890.949	11.6
891.117	0.72
891.284	10.21
891.452	-4.86
891.619	1.48
891.786	9.12
891.953	22.18
892.121	15.77
892.288	8.81
892.455	25.28
892.623	11.17
892.79	-0.03
892.957	13.61
893.124	23.75
893.291	5.72
893.459	13.54
893.626	16.84
893.793	5.16
893.96	10.54
894.127	6.77
894.294	24.63
894.461	6.53
894.629	10.57
894.796	5.72
894.963	6.05
895.13	35.99
895.297	-1.85
895.464	14.62
895.631	8.01
895.798	17.46
895.965	0.68
896.132	5.13
896.299	9.76
896.466	23.5
896.633	15.48
896.8	7.19
896.967	20.08
897.134	6.38
897.301	11.4
897.467	17.3
897.634	11.99
897.801	8.71
897.968	15.06
898.135	13.57
898.302	2.14
898.469	10.46
898.635	5.11
898.802	17.1
898.969	8.69
899.136	12.24
899.303	3.87
