Data from x0_Transmission_14-57-28-044.txt Node
Date: Thu May 02 14:57:28 EDT 2019
User: dh1006
Spectrometer: USB4E01358
Autoset integration time: false
Trigger mode: 4
Integration Time (sec): 8.000000E-2
Scans to average: 1
Electric dark correction enabled: true
Nonlinearity correction enabled: false
Boxcar width: 0
Stray light correction enabled: false
XAxis mode: Wavelengths
Stop averaging: false
Number of Pixels in Spectrum: 3648
>>>>>Begin Spectral Data<<<<<
176.727	363.33
176.966	363.33
177.205	363.33
177.444	150.56
177.683	70.52
177.922	33.47
178.161	450
178.4	99
178.638	-6700
178.877	63.77
179.116	265.26
179.355	154.55
179.593	-158.57
179.832	140.31
180.071	-47.95
180.309	233.33
180.548	168.49
180.786	-42.06
181.025	-9950
181.263	-16.21
181.502	84.03
181.74	57.64
181.979	-20.48
182.217	93.06
182.456	90.02
182.694	1.58
182.932	115.71
183.17	12.73
183.409	-155.78
183.647	55.74
183.885	-49.47
184.123	152.79
184.361	192.81
184.6	-35.03
184.838	-1644.44
185.076	-14.29
185.314	-112.2
185.552	33.22
185.79	-17.27
186.028	72.4
186.266	-9.24
186.503	5.26
186.741	-88.21
186.979	142.11
187.217	-6700
187.455	215.13
187.693	11.96
187.93	31
188.168	747.92
188.406	61.81
188.643	114.03
188.881	-784.06
189.119	-35.44
189.356	-19.44
189.594	140.36
189.831	261.98
190.069	-35.74
190.306	-26.14
190.543	69.63
190.781	115.94
191.018	117.07
191.256	396.72
191.493	-182.07
191.73	30.96
191.967	-176.79
192.205	-111.68
192.442	103.44
192.679	1100
192.916	-216.25
193.153	122.56
193.39	-826.79
193.628	556.36
193.865	-123.34
194.102	-34.92
194.339	23.23
194.576	-40.43
194.813	-11.16
195.049	222.5
195.286	70.99
195.523	-44.62
195.76	16.67
195.997	23.66
196.234	-26.9
196.47	-66.93
196.707	-277.61
196.944	4.42
197.18	38.28
197.417	23.44
197.654	31.77
197.89	67.65
198.127	-45.52
198.363	442.53
198.6	33.83
198.836	100.44
199.073	-7.78
199.309	82.51
199.546	48.87
199.782	-3.77
200.018	-1846.67
200.255	72.86
200.491	-1379.07
200.727	73.68
200.963	14.43
201.199	-189.64
201.436	296.63
201.672	-38.23
201.908	39.81
202.144	-51.09
202.38	-172.63
202.616	44.51
202.852	-41.25
203.088	5.9
203.324	306.32
203.56	-374.39
203.796	-118.48
204.032	-20.29
204.268	531.25
204.503	160.55
204.739	-124.86
204.975	-49.88
205.211	-124.89
205.446	33.2
205.682	57.79
205.918	-351.16
206.153	-26.97
206.389	132.22
206.625	100.32
206.86	80.68
207.096	100.62
207.331	74.8
207.567	2.69
207.802	-85.03
208.037	20.43
208.273	17.58
208.508	-248.15
208.744	-82.16
208.979	19.9
209.214	-8000
209.449	100.36
209.685	42.75
209.92	93.06
210.155	122.27
210.39	16.06
210.625	-83.93
210.86	-153.39
211.095	182.35
211.33	-32.53
211.565	-272.22
211.8	-65.52
212.035	358.68
212.27	9.08
212.505	85.82
212.74	77.16
212.975	390.91
213.21	157.27
213.444	88.45
213.679	-71.75
213.914	53.05
214.149	0.89
214.383	-2.83
214.618	57.83
214.853	83.69
215.087	-18.28
215.322	-53.8
215.556	-56.28
215.791	162.79
216.025	-146.28
216.26	-30.09
216.494	397.3
216.729	137.04
216.963	-60.85
217.197	67.85
217.432	9.78
217.666	-89.02
217.9	0.45
218.135	54.26
218.369	7600
218.603	220.36
218.837	8.55
219.071	216.41
219.306	74.78
219.54	70.83
219.774	56.75
220.008	72.46
220.242	-307.44
220.476	1711.76
220.71	32.4
220.944	49.19
221.178	-215.85
221.411	6.21
221.645	21.78
221.879	96.22
222.113	-156.67
222.347	23.38
222.58	-59.31
222.814	48.8
223.048	-79.63
223.281	-2.1
223.515	432.74
223.749	-167.5
223.982	-123.1
224.216	970
224.449	236.18
224.683	-113.76
224.916	-175.93
225.15	40.65
225.383	593
225.617	2.87
225.85	18.12
226.083	218.26
226.317	168.73
226.55	-56.28
226.783	52.78
227.016	42.37
227.25	394.29
227.483	101.79
227.716	16.24
227.949	15.7
228.182	170.25
228.415	-84.81
228.648	-102.5
228.881	100.21
229.114	-35.21
229.347	60.83
229.58	710
229.813	101.94
230.046	-121.21
230.279	-31.73
230.512	-1.25
230.745	37.71
230.977	79.86
231.21	59.29
231.443	-106.93
231.675	89.5
231.908	1558.82
232.141	118.79
232.373	-487.37
232.606	-129.25
232.839	113.25
233.071	-176.89
233.304	-165.53
233.536	-364.21
233.769	207.37
234.001	-32.06
234.233	100.93
234.466	21.06
234.698	246.08
234.93	10.69
235.163	95.11
235.395	-623.26
235.627	36.36
235.86	-294.2
236.092	60.66
236.324	8.72
236.556	36.26
236.788	3.61
237.02	41.69
237.252	18.11
237.484	36.86
237.716	233.33
237.948	117.49
238.18	552.07
238.412	100.5
238.644	196.09
238.876	-70
239.108	30.38
239.34	290.16
239.571	39.47
239.803	-10.24
240.035	152.54
240.267	142.46
240.498	-1500
240.73	993.44
240.962	-49.75
241.193	62.82
241.425	14.98
241.656	323.74
241.888	26.09
242.119	-19.62
242.351	132.56
242.582	75.94
242.814	4.13
243.045	75.35
243.277	-170.9
243.508	660.81
243.739	70.52
243.971	7.01
244.202	24.65
244.433	-27.17
244.664	85.41
244.896	87.97
245.127	43.95
245.358	-896.43
245.589	138.15
245.82	302.02
246.051	-77.58
246.282	35.57
246.513	194.38
246.744	1.6
246.975	370.73
247.206	-6.93
247.437	-71.83
247.668	-320.37
247.899	9.07
248.129	68.12
248.36	67.21
248.591	-83.41
248.822	3.77
249.052	-102.99
249.283	39.06
249.514	23.35
249.744	-55.26
249.975	-18.99
250.206	-12.34
250.436	76.6
250.667	707.19
250.897	46.6
251.128	17.13
251.358	133.78
251.589	204.44
251.819	56.9
252.049	-21.66
252.28	83.64
252.51	-47.8
252.74	96.04
252.971	-6050
253.201	43.27
253.431	9.74
253.661	-46.7
253.891	-167.5
254.121	10.81
254.352	164
254.582	97.14
254.812	136.65
255.042	-102.01
255.272	42.26
255.502	199.18
255.732	2255.56
255.962	140.98
256.192	35.18
256.421	-92.74
256.651	65.25
256.881	83.11
257.111	84.95
257.341	-22.86
257.57	101.75
257.8	60.4
258.03	74.31
258.259	11.54
258.489	15.93
258.719	46.77
258.948	75.7
259.178	4.16
259.407	168.14
259.637	13.57
259.866	27.5
260.096	-108.54
260.325	-4.62
260.555	122.27
260.784	92.75
261.013	-1012.5
261.243	63.87
261.472	555.41
261.701	71.56
261.931	6.82
262.16	87.21
262.389	77.16
262.618	-219.7
262.847	108.03
263.076	42.37
263.305	52.49
263.535	-16.04
263.764	62.68
263.993	54.6
264.222	26.22
264.451	51.14
264.679	50.31
264.908	10.81
265.137	-11.01
265.366	52.55
265.595	-21.35
265.824	42.51
266.053	46.74
266.281	-124.86
266.51	11.17
266.739	65.83
266.967	48.72
267.196	-4750
267.425	63.96
267.653	45.61
267.882	65.74
268.11	305.56
268.339	-42.54
268.567	45.28
268.796	-150.84
269.024	867.86
269.253	-217.06
269.481	102.23
269.709	81.27
269.938	77.49
270.166	55.77
270.394	-34.04
270.623	17.98
270.851	-139.18
271.079	141.03
271.307	16.26
271.535	184.35
271.764	16.67
271.992	353.19
272.22	23.92
272.448	-82.16
272.676	-28.95
272.904	51.03
273.132	38.86
273.36	4.94
273.588	81.57
273.816	62.36
274.043	-25.87
274.271	107.65
274.499	-3.56
274.727	221.3
274.955	70.99
275.182	35.52
275.41	-193.01
275.638	203.61
275.866	368.75
276.093	47.08
276.321	51.42
276.548	-4.73
276.776	-75.38
277.003	143.76
277.231	1062.86
277.458	-95.21
277.686	320
277.913	-37.5
278.141	48.58
278.368	76.55
278.595	21.89
278.823	-342.68
279.05	-110.83
279.277	-41.64
279.505	-38.62
279.732	-236.25
279.959	60
280.186	106.63
280.413	15.56
280.641	32.95
280.868	87.15
281.095	-134.45
281.322	-26.67
281.549	-90.36
281.776	-6.18
282.003	8.75
282.23	-177.59
282.457	66.14
282.683	22.86
282.91	-159.38
283.137	87.25
283.364	-22.73
283.591	-3.36
283.818	-1500
284.044	-381.4
284.271	42.49
284.498	-41.25
284.724	98.27
284.951	4.02
285.178	54.87
285.404	43.06
285.631	44.16
285.857	7.64
286.084	-58.96
286.31	-136.18
286.537	1.15
286.763	26.22
286.99	-1.27
287.216	2400
287.442	-111.56
287.669	46.48
287.895	119.64
288.121	117.99
288.347	-3.36
288.574	59.29
288.8	36.86
289.026	120.08
289.252	151.82
289.478	32.84
289.704	38.28
289.931	41.03
290.157	39.66
290.383	1.91
290.609	51.77
290.835	62.11
291.06	93.65
291.286	-5.51
291.512	310.98
291.738	-56.22
291.964	44.84
292.19	-85.29
292.416	-95.16
292.641	183.29
292.867	45.95
293.093	877.14
293.319	80.6
293.544	110.23
293.77	30.65
293.995	-68.2
294.221	-32.86
294.447	68.72
294.672	176.89
294.898	45.54
295.123	14.47
295.349	67.41
295.574	69.51
295.799	31.18
296.025	54
296.25	45.13
296.476	229
296.701	9.78
296.926	-8.55
297.151	-22.73
297.377	-868.57
297.602	-6.65
297.827	42.45
298.052	287.5
298.277	82.06
298.502	61.01
298.727	55.91
298.953	37.98
299.178	68.38
299.403	165.83
299.628	-9.76
299.852	-25.21
300.077	-1500
300.302	15.84
300.527	-21.83
300.752	-23.73
300.977	346
301.202	290.16
301.426	76.38
301.651	-11.19
301.876	152.08
302.101	-65.34
302.325	34.81
302.55	15.88
302.775	-48.1
302.999	75.76
303.224	-17.19
303.448	12.46
303.673	-236.11
303.897	20.71
304.122	54.64
304.346	43.63
304.571	37.54
304.795	91.84
305.019	24.58
305.244	58.71
305.468	45.95
305.692	-89.7
305.917	47.11
306.141	0.89
306.365	247.54
306.589	-8.1
306.813	50.42
307.038	32.14
307.262	121.78
307.486	106.43
307.71	450
307.934	73.27
308.158	235.84
308.382	9.87
308.606	-60.62
308.83	33.21
309.054	-211.56
309.278	58.76
309.502	95.15
309.725	-327.75
309.949	110.64
310.173	88.89
310.397	60.9
310.62	343.28
310.844	15.88
311.068	206.25
311.292	49.55
311.515	-10.99
311.739	558.33
311.962	41.69
312.186	17.43
312.41	-6.65
312.633	-1.69
312.857	89.4
313.08	-308.33
313.303	-43.01
313.527	62.04
313.75	31.68
313.974	-49.91
314.197	-96.75
314.42	127.25
314.644	108.03
314.867	48.87
315.09	0.85
315.313	38.87
315.536	-24.28
315.76	-20.69
315.983	55.53
316.206	34
316.429	-118.75
316.652	-148
316.875	12.07
317.098	2.22
317.321	8.38
317.544	238.75
317.767	15.9
317.99	73.21
318.213	0.65
318.436	-68.35
318.658	27.71
318.881	-114.62
319.104	16.67
319.327	106.12
319.55	79.68
319.772	238.33
319.995	710
320.218	-0.88
320.44	47.62
320.663	-8.63
320.885	-35.03
321.108	28.59
321.331	-52.45
321.553	-97.15
321.776	9550
321.998	38.65
322.22	9.59
322.443	193.94
322.665	48.44
322.888	37.16
323.11	130.2
323.332	28.83
323.555	233.33
323.777	88.89
323.999	44.09
324.221	76.08
324.443	82.41
324.666	-37.27
324.888	95.31
325.11	-135.54
325.332	113.57
325.554	33.02
325.776	10.49
325.998	132.56
326.22	-256.52
326.442	20.34
326.664	8.84
326.886	-52.83
327.108	-2.76
327.33	-113.33
327.551	36.59
327.773	-6.86
327.995	-13.45
328.217	-17.08
328.439	48.63
328.66	101.91
328.882	-124.79
329.104	403.57
329.325	28.04
329.547	58.71
329.769	-88.45
329.99	91.22
330.212	162.3
330.433	-30.54
330.655	55.54
330.876	100.25
331.098	886.89
331.319	8.83
331.54	-4.73
331.762	-23.57
331.983	81.93
332.204	4.04
332.426	90.59
332.647	157.87
332.868	25.12
333.089	-74.48
333.311	65.91
333.532	-20.76
333.753	-546.67
333.974	14.12
334.195	-16.3
334.416	0.85
334.637	-39.25
334.858	34.82
335.079	-123.03
335.3	17.05
335.521	-121.61
335.742	214.49
335.963	110.11
336.184	85.22
336.405	52.85
336.626	52.32
336.846	-18.99
337.067	75.48
337.288	34.52
337.509	-1023.33
337.729	105.1
337.95	-1923.26
338.171	-115.08
338.391	29.41
338.612	51.09
338.833	747.92
339.053	25.23
339.274	33.96
339.494	23.92
339.715	88.89
339.935	-27.22
340.156	89.19
340.376	89.37
340.596	58.2
340.817	1211.43
341.037	112.66
341.257	97.46
341.478	-6.66
341.698	-16.3
341.918	-297.5
342.138	0.95
342.359	-60.22
342.579	22.19
342.799	-27.65
343.019	60
343.239	40.07
343.459	67.16
343.679	75.29
343.899	50.37
344.119	50.4
344.339	5.7
344.559	-37.9
344.779	-247.27
344.999	-11.66
345.219	39.08
345.439	35.43
345.658	-344.44
345.878	260.42
346.098	-89.54
346.318	-4.49
346.537	1277.27
346.757	-14.29
346.977	-24.55
347.196	42.8
347.416	10.29
347.636	26.29
347.855	193.28
348.075	-150.76
348.294	-110.63
348.514	76.85
348.733	22.18
348.953	511.58
349.172	106.22
349.392	21.78
349.611	111.19
349.83	61.41
350.05	-81.82
350.269	32.01
350.488	48.31
350.707	-35.63
350.927	42.29
351.146	26.74
351.365	-5.1
351.584	-67.05
351.803	30.41
352.023	20.24
352.242	64.64
352.461	-136.44
352.68	105.58
352.899	60
353.118	-6.38
353.337	125
353.556	-101.17
353.775	73.09
353.993	-81.22
354.212	49.23
354.431	60.25
354.65	51.94
354.869	44.01
355.088	47.16
355.306	53.39
355.525	44.67
355.744	25.94
355.962	-18.28
356.181	432.43
356.4	5.26
356.618	40.98
356.837	-77.92
357.055	-63.25
357.274	67.46
357.492	149.07
357.711	33.26
357.929	46.18
358.148	-390.67
358.366	164.91
358.585	179.78
358.803	-148.51
359.021	639.82
359.24	0.62
359.458	-185.92
359.676	24.44
359.894	-0.96
360.113	76.3
360.331	51.09
360.549	282.86
360.767	-16.81
360.985	-122.39
361.203	-53.63
361.421	53.06
361.639	-11.91
361.857	40.35
362.075	69.67
362.293	52.35
362.511	-183.54
362.729	-161.14
362.947	-28.78
363.165	214.37
363.383	57.41
363.601	-10.42
363.819	-15.23
364.036	49.41
364.254	123.35
364.472	-13.15
364.689	67.32
364.907	64.5
365.125	401.25
365.342	-117.34
365.56	53.83
365.778	-22.4
365.995	-45.63
366.213	93.55
366.43	10.88
366.648	-42.01
366.865	67.65
367.083	114.03
367.3	-209.85
367.517	-71.97
367.735	14.47
367.952	-5.41
368.17	32.63
368.387	46.97
368.604	29.99
368.821	104.83
369.039	11.28
369.256	9.21
369.473	14.56
369.69	130.7
369.907	5000
370.124	1100
370.341	67.65
370.558	27.84
370.776	27.2
370.993	70.16
371.21	63.66
371.426	-16.37
371.643	32.25
371.86	28.59
372.077	86.9
372.294	18.88
372.511	39.7
372.728	12.44
372.945	42.79
373.161	-40.58
373.378	47.08
373.595	-20.41
373.811	50.27
374.028	13.04
374.245	26.39
374.461	63.29
374.678	48.77
374.895	-33.68
375.111	78.18
375.328	86.8
375.544	994.59
375.761	-15.19
375.977	61.68
376.194	38.78
376.41	-116.37
376.626	-27.25
376.843	72.45
377.059	52.18
377.275	11.76
377.492	45.66
377.708	-30.98
377.924	19.33
378.14	23.68
378.357	169.27
378.573	141.46
378.789	22.72
379.005	47.06
379.221	-65.27
379.437	-61.07
379.653	17.31
379.869	71.96
380.085	-36.06
380.301	13.87
380.517	87.28
380.733	26.84
380.949	50.4
381.165	32.42
381.381	65.87
381.597	46.64
381.813	26.3
382.028	67.02
382.244	-4
382.46	13.5
382.676	12.61
382.891	-30.87
383.107	36.77
383.323	60.59
383.538	-30.04
383.754	34.13
383.969	86.86
384.185	26.81
384.4	4.55
384.616	-49.08
384.831	50.9
385.047	-49.04
385.262	36.7
385.478	22.08
385.693	-12.03
385.909	69.17
386.124	39.68
386.339	22.3
386.554	7.67
386.77	-7.99
386.985	-22.64
387.2	28.9
387.415	85.67
387.631	38.58
387.846	6.52
388.061	16.07
388.276	8.38
388.491	9.55
388.706	-18.57
388.921	-7.74
389.136	-6.66
389.351	40.41
389.566	-7.87
389.781	38.63
389.996	52.44
390.211	23.08
390.426	42.27
390.641	-15.18
390.855	-40.68
391.07	14.07
391.285	-63.58
391.5	-21.57
391.714	32.35
391.929	26.94
392.144	29.94
392.358	15.57
392.573	-10.66
392.788	32.14
393.002	10.14
393.217	33.04
393.431	14.5
393.646	15.51
393.86	13.09
394.075	14.96
394.289	6.11
394.504	16.67
394.718	2.15
394.933	0.22
395.147	3.61
395.361	13.3
395.576	9.84
395.79	0.22
396.004	12.49
396.218	-0.35
396.432	7.38
396.647	0.99
396.861	-0.69
397.075	25.96
397.289	14.98
397.503	17.14
397.717	8.17
397.931	8.41
398.145	0.19
398.359	22.39
398.573	10.15
398.787	2.82
399.001	3.99
399.215	19.97
399.429	2.09
399.643	7.93
399.857	-2.86
400.07	11.89
400.284	11.15
400.498	8.4
400.712	4.59
400.925	8.26
401.139	1.21
401.353	-0.17
401.566	18.43
401.78	6.01
401.994	11.57
402.207	6.4
402.421	6.59
402.634	0.41
402.848	12.97
403.061	15.98
403.275	16.63
403.488	10.79
403.702	-0.38
403.915	11.19
404.128	4.64
404.342	6.91
404.555	-3.61
404.768	18.42
404.982	7.57
405.195	5.49
405.408	10.26
405.621	4.9
405.835	8.38
406.048	6
406.261	6.95
406.474	11.29
406.687	15.9
406.9	7.61
407.113	9.02
407.326	9.49
407.539	4.59
407.752	6.95
407.965	6.81
408.178	5.97
408.391	8.92
408.604	5.58
408.817	6.08
409.029	4.33
409.242	8.3
409.455	4.36
409.668	6.27
409.881	8.91
410.093	6.49
410.306	6.02
410.519	1.7
410.731	4.7
410.944	7.27
411.157	9.12
411.369	2.67
411.582	7.95
411.794	8.81
412.007	8.19
412.219	8.14
412.432	5.85
412.644	5.3
412.857	5.35
413.069	10.22
413.281	8.27
413.494	12.5
413.706	12.03
413.918	7.16
414.131	7.37
414.343	5.78
414.555	8.48
414.767	10.65
414.979	8.25
415.192	6.46
415.404	7.65
415.616	6.29
415.828	6.4
416.04	5.81
416.252	10.07
416.464	5.78
416.676	7.83
416.888	8.07
417.1	4.23
417.312	11.91
417.524	7.06
417.736	6.92
417.948	6.35
418.159	8.61
418.371	10.15
418.583	8.4
418.795	9.99
419.007	8.62
419.218	4.82
419.43	10.04
419.642	6.8
419.853	7.12
420.065	8.16
420.276	10.25
420.488	12
420.7	8.44
420.911	8.31
421.123	10.76
421.334	9.27
421.546	8.76
421.757	6.35
421.969	9.71
422.18	9.18
422.391	7.76
422.603	9.1
422.814	10.39
423.025	9.74
423.237	10.38
423.448	12.39
423.659	10.86
423.87	7.44
424.082	9.34
424.293	9.01
424.504	13.43
424.715	12.44
424.926	10.45
425.137	8.76
425.348	12.95
425.559	10.54
425.77	14.12
425.981	11.2
426.192	12.24
426.403	11.61
426.614	10.2
426.825	11.92
427.036	12.74
427.247	9.71
427.458	14.15
427.668	11.38
427.879	12.63
428.09	11.77
428.301	10.15
428.511	11.72
428.722	10.74
428.933	12.63
429.143	12.02
429.354	13.81
429.565	12.72
429.775	14.68
429.986	13.61
430.196	11.06
430.407	12.01
430.617	14.83
430.828	13.28
431.038	14.98
431.249	13.94
431.459	13.65
431.669	15.66
431.88	16.45
432.09	15.01
432.3	15.36
432.511	13.04
432.721	18.79
432.931	17.19
433.141	16.25
433.351	17.23
433.562	16.68
433.772	17.1
433.982	14.98
434.192	19.28
434.402	17.35
434.612	16.25
434.822	18.19
435.032	19.73
435.242	20.34
435.452	18.14
435.662	19.24
435.872	18.17
436.082	22.76
436.292	22.2
436.502	23.08
436.711	21.37
436.921	21.73
437.131	25.25
437.341	22.7
437.551	26.75
437.76	26.03
437.97	26.17
438.18	26.13
438.389	26.03
438.599	27.93
438.808	25.38
439.018	29.91
439.228	29.58
439.437	27.99
439.647	29.02
439.856	30.78
440.066	31.16
440.275	33.67
440.484	35.86
440.694	32.82
440.903	33.95
441.113	36.89
441.322	35.77
441.531	39.62
441.741	36.49
441.95	38.94
442.159	42.51
442.368	39.5
442.577	40.2
442.787	41.08
442.996	39.35
443.205	41.05
443.414	42.96
443.623	45.61
443.832	46.13
444.041	48.06
444.25	49.95
444.459	46.15
444.668	52.56
444.877	54.15
445.086	51.86
445.295	53.15
445.504	53.3
445.713	57.9
445.922	53.25
446.13	56.57
446.339	56.56
446.548	57.52
446.757	58.64
446.965	58.12
447.174	57.02
447.383	63.47
447.591	62.4
447.8	60.01
448.009	61.62
448.217	64.43
448.426	65.26
448.634	67.86
448.843	63.88
449.051	66.8
449.26	70.04
449.468	69.49
449.677	70.15
449.885	70.03
450.093	64.41
450.302	66.73
450.51	67.12
450.719	68.26
450.927	67.52
451.135	68.87
451.343	66.2
451.552	70.29
451.76	66.17
451.968	64.9
452.176	62.25
452.384	67.7
452.592	65.1
452.8	65.6
453.009	62.11
453.217	61.65
453.425	62.88
453.633	59.79
453.841	59.75
454.049	61.92
454.257	57.45
454.464	57.69
454.672	55.34
454.88	55.11
455.088	55.73
455.296	50.65
455.504	54.64
455.711	53.7
455.919	47.89
456.127	49.64
456.335	50.17
456.542	50.11
456.75	45.57
456.958	45.22
457.165	47.53
457.373	43.79
457.581	40.51
457.788	42.77
457.996	41.51
458.203	42.34
458.411	43.07
458.618	38.76
458.826	37.28
459.033	39.27
459.24	39.94
459.448	36.26
459.655	36.57
459.863	35.7
460.07	32.36
460.277	35.36
460.484	35.15
460.692	34.17
460.899	30.33
461.106	31.53
461.313	28.43
461.52	27.27
461.728	29.26
461.935	31.42
462.142	28.2
462.349	30.75
462.556	28.19
462.763	29.25
462.97	25
463.177	27.1
463.384	23.05
463.591	24.06
463.798	25.96
464.005	23.6
464.212	22.95
464.418	24.12
464.625	22.94
464.832	22.8
465.039	22.26
465.246	22.98
465.452	20.82
465.659	21.46
465.866	17.71
466.072	18.94
466.279	20.89
466.486	21.38
466.692	19.54
466.899	19.88
467.105	19.87
467.312	19.22
467.519	18.83
467.725	18.13
467.931	17.45
468.138	15.75
468.344	16.62
468.551	14.92
468.757	15.94
468.964	17.6
469.17	16.73
469.376	16.31
469.583	15.07
469.789	17.07
469.995	13.92
470.201	16.82
470.408	14.84
470.614	16.31
470.82	14.41
471.026	13.06
471.232	11.63
471.438	13.74
471.644	15.08
471.85	16.41
472.056	14.54
472.262	14.81
472.468	13.93
472.674	10.83
472.88	13.49
473.086	11.64
473.292	13.54
473.498	12.27
473.704	12.49
473.91	13.62
474.116	12.81
474.321	11.49
474.527	11.58
474.733	11.34
474.939	10.33
475.144	12.35
475.35	9.41
475.556	9.1
475.761	11.66
475.967	11.09
476.173	10.1
476.378	13.05
476.584	12.3
476.789	9.69
476.995	11.97
477.2	10.38
477.406	12.06
477.611	10.53
477.817	10.19
478.022	10.11
478.227	9.73
478.433	9.99
478.638	9.35
478.843	9.98
479.049	11.03
479.254	9.95
479.459	7.13
479.664	10.34
479.87	10.62
480.075	9.18
480.28	9.07
480.485	9.45
480.69	9.3
480.895	7.7
481.1	9.83
481.306	8.93
481.511	9.48
481.716	8.85
481.921	7.43
482.126	8.55
482.33	8.44
482.535	7.5
482.74	6.59
482.945	7.99
483.15	7.93
483.355	7.49
483.56	7.42
483.765	7.2
483.969	7.79
484.174	8.3
484.379	7.25
484.583	7.88
484.788	7.34
484.993	7.42
485.197	8.64
485.402	7.09
485.607	8.48
485.811	7.68
486.016	7.91
486.22	9.01
486.425	8.38
486.629	7.83
486.834	7.81
487.038	7.99
487.243	6.97
487.447	6.59
487.652	6.72
487.856	7.14
488.06	7.22
488.265	7.8
488.469	7.15
488.673	6.83
488.877	7.4
489.082	7.07
489.286	6.28
489.49	6.65
489.694	6.35
489.898	7.12
490.102	7.08
490.307	7.05
490.511	6.5
490.715	7.37
490.919	7.05
491.123	6.97
491.327	7.44
491.531	6.59
491.735	6.71
491.939	7.36
492.143	6.61
492.346	6.2
492.55	5.96
492.754	6.68
492.958	6.52
493.162	5.42
493.366	6.08
493.569	6.55
493.773	7.19
493.977	6.42
494.18	6.22
494.384	5.29
494.588	6.46
494.791	5.54
494.995	6.03
495.199	6.5
495.402	7.18
495.606	5.17
495.809	6.78
496.013	5.79
496.216	5.82
496.42	5.27
496.623	5.93
496.827	6.27
497.03	6.33
497.233	6.71
497.437	4.41
497.64	5.35
497.843	5.36
498.047	5.82
498.25	6.54
498.453	5.97
498.656	6.26
498.86	5.84
499.063	6.74
499.266	5.51
499.469	5.57
499.672	6.44
499.875	5.53
500.078	4.54
500.281	5.93
500.484	5.63
500.687	5.16
500.89	6.16
501.093	5.72
501.296	5.99
501.499	4.23
501.702	6.33
501.905	5.61
502.108	6.41
502.311	4.95
502.514	5.5
502.716	5.71
502.919	5.47
503.122	5.09
503.325	6.31
503.527	6.09
503.73	5.64
503.933	5
504.135	5.41
504.338	5.38
504.541	5.44
504.743	6.24
504.946	6.46
505.148	5.06
505.351	4.93
505.553	5.77
505.756	6.31
505.958	6.15
506.161	6.17
506.363	5.54
506.565	5.56
506.768	5.47
506.97	5.24
507.172	4.7
507.375	5.06
507.577	4.2
507.779	6.3
507.982	5.65
508.184	5.62
508.386	6.02
508.588	5.52
508.79	5.07
508.993	6.04
509.195	6.14
509.397	5.84
509.599	6.1
509.801	4.66
510.003	4.95
510.205	5.57
510.407	6.05
510.609	6.39
510.811	5.69
511.013	5.73
511.215	5.82
511.417	5.73
511.618	5.37
511.82	5.67
512.022	4.87
512.224	5.78
512.426	5.03
512.627	5.68
512.829	5.6
513.031	6.22
513.233	6.1
513.434	5.54
513.636	5.82
513.838	5.92
514.039	5.95
514.241	5.96
514.442	5.58
514.644	5.59
514.845	5.25
515.047	5.81
515.248	5.23
515.45	5.61
515.651	5.42
515.853	5.7
516.054	5.2
516.256	5.68
516.457	6.72
516.658	5.76
516.86	5.74
517.061	5.4
517.262	6.06
517.463	5.63
517.665	5.99
517.866	5.67
518.067	5.82
518.268	5.89
518.469	5.64
518.67	5.49
518.872	5.32
519.073	5.87
519.274	5.8
519.475	6.29
519.676	5.43
519.877	5.89
520.078	6.19
520.279	5.84
520.48	5.23
520.681	6.52
520.881	5.87
521.082	6.44
521.283	6.32
521.484	5.88
521.685	6.1
521.886	6.19
522.086	5.97
522.287	6.44
522.488	5.9
522.689	6.27
522.889	5.84
523.09	5.99
523.291	6.16
523.491	5.9
523.692	5.43
523.892	6.43
524.093	6.06
524.294	5.85
524.494	5.96
524.695	6.6
524.895	6.43
525.096	6.23
525.296	6.48
525.496	6.4
525.697	6.27
525.897	6.51
526.098	6.49
526.298	6.31
526.498	6.2
526.699	5.77
526.899	7
527.099	6.75
527.299	6.39
527.499	6.23
527.7	6.29
527.9	6.69
528.1	6.82
528.3	6.67
528.5	6.87
528.7	6.5
528.9	6.57
529.1	6.55
529.3	6.63
529.5	6.79
529.7	6.88
529.9	6.69
530.1	6.74
530.3	6.41
530.5	6.76
530.7	7.13
530.9	7.01
531.1	6.68
531.3	6.64
531.499	6.77
531.699	7.34
531.899	6.49
532.099	7.01
532.298	7.31
532.498	7.44
532.698	7.43
532.897	6.97
533.097	6.88
533.297	6.89
533.496	6.77
533.696	7.38
533.895	7.28
534.095	7.42
534.294	7.07
534.494	6.9
534.693	7.73
534.893	7.79
535.092	7.28
535.292	6.99
535.491	7.26
535.69	7.13
535.89	7.3
536.089	7.67
536.288	7.46
536.488	7.33
536.687	7.9
536.886	7.79
537.085	7.2
537.285	7.75
537.484	7.65
537.683	8.24
537.882	7.53
538.081	7.48
538.28	8.24
538.479	7.82
538.678	7.72
538.877	8.16
539.076	8.14
539.275	7.54
539.474	8.21
539.673	8.37
539.872	7.87
540.071	8.24
540.27	8.7
540.469	8.18
540.668	8.2
540.867	8.38
541.065	8.74
541.264	8.11
541.463	7.98
541.662	8.38
541.861	7.99
542.059	8.5
542.258	8.58
542.457	8.93
542.655	8.82
542.854	8.59
543.052	8.9
543.251	8.79
543.45	8.81
543.648	9.1
543.847	8.88
544.045	8.74
544.244	8.4
544.442	9.22
544.641	9.29
544.839	8.86
545.037	9.53
545.236	9.46
545.434	9.67
545.632	9.51
545.831	9.54
546.029	9.33
546.227	10.25
546.426	9.23
546.624	9.26
546.822	9.54
547.02	9.86
547.218	9.75
547.417	9.78
547.615	9.73
547.813	10.33
548.011	10.36
548.209	10.75
548.407	10.15
548.605	10.31
548.803	9.98
549.001	10.2
549.199	10.14
549.397	10.13
549.595	10.38
549.793	10.81
549.991	10.38
550.189	10.47
550.387	10.73
550.584	10.62
550.782	10.65
550.98	11.06
551.178	11.29
551.376	11.07
551.573	11.06
551.771	11.07
551.969	12.07
552.166	11.55
552.364	11.46
552.562	11.21
552.759	11.76
552.957	11.3
553.154	11.48
553.352	11.98
553.55	11.98
553.747	11.53
553.945	11.84
554.142	11.9
554.339	12.04
554.537	12.19
554.734	12.5
554.932	12.57
555.129	12.22
555.326	12.57
555.524	12.55
555.721	12.5
555.918	13.02
556.116	12.7
556.313	12.93
556.51	13.09
556.707	13.24
556.904	12.9
557.102	13.19
557.299	13.42
557.496	13.34
557.693	14.39
557.89	13.61
558.087	13.34
558.284	13.94
558.481	14.5
558.678	13.99
558.875	14.47
559.072	14.07
559.269	14.1
559.466	14.38
559.663	14.44
559.86	14.22
560.057	14.7
560.254	14.54
560.45	14.52
560.647	14.75
560.844	14.91
561.041	15.09
561.237	15.08
561.434	14.88
561.631	15.46
561.828	15.53
562.024	15.84
562.221	15.51
562.418	15.8
562.614	15.9
562.811	16.31
563.007	16.2
563.204	16.43
563.4	16.6
563.597	16.71
563.793	16.93
563.99	16.97
564.186	17.45
564.383	17.46
564.579	17.54
564.775	17.84
564.972	18.07
565.168	17.84
565.365	17.99
565.561	18.09
565.757	18.49
565.953	18.07
566.15	18.38
566.346	18.39
566.542	18.43
566.738	18.47
566.934	18.92
567.131	18.68
567.327	19.09
567.523	18.79
567.719	18.9
567.915	19.31
568.111	19.4
568.307	19.75
568.503	20.16
568.699	19.86
568.895	19.96
569.091	20.51
569.287	20.6
569.483	20.75
569.679	20.46
569.875	21.09
570.07	20.89
570.266	21.35
570.462	21.74
570.658	21.97
570.854	21.16
571.049	22.36
571.245	22.57
571.441	22.14
571.636	22.55
571.832	22.56
572.028	22.93
572.223	23.67
572.419	23.32
572.615	23.17
572.81	23.83
573.006	23.17
573.201	23.56
573.397	24.63
573.592	24.36
573.788	24.67
573.983	24.74
574.179	24.96
574.374	24.86
574.569	24.96
574.765	25.34
574.96	25.27
575.156	25.18
575.351	25.54
575.546	26.13
575.741	25.14
575.937	25.87
576.132	26.36
576.327	26.68
576.522	27.09
576.718	27.07
576.913	26.94
577.108	27.48
577.303	28.07
577.498	27.27
577.693	27.93
577.888	28.13
578.083	28.69
578.278	28.63
578.473	29.15
578.668	28.53
578.863	28.94
579.058	29.81
579.253	30.08
579.448	30.55
579.643	30.09
579.838	30.66
580.033	30.35
580.227	30.71
580.422	31.09
580.617	31.6
580.812	31.85
581.006	32.02
581.201	33
581.396	32.76
581.591	32.47
581.785	33.11
581.98	33.57
582.175	33.68
582.369	34.38
582.564	34.06
582.758	34.62
582.953	34.53
583.147	34.41
583.342	34.83
583.536	34.92
583.731	35.75
583.925	35.47
584.12	35.97
584.314	36.15
584.509	36.16
584.703	36.72
584.897	37.04
585.092	37.75
585.286	37.71
585.48	38.19
585.674	37.62
585.869	38.2
586.063	38.92
586.257	39.19
586.451	39.54
586.646	39.92
586.84	40.5
587.034	39.6
587.228	40.44
587.422	40.72
587.616	41.01
587.81	40.91
588.004	41.42
588.198	41.87
588.392	42
588.586	42.54
588.78	42.67
588.974	42.26
589.168	43.1
589.362	43.1
589.556	43.79
589.75	43.98
589.944	44.3
590.137	44.11
590.331	44.83
590.525	45.01
590.719	44.47
590.913	44.53
591.106	45.53
591.3	46.17
591.494	46.43
591.687	46.9
591.881	46.96
592.075	46.96
592.268	47.15
592.462	47.63
592.655	48.34
592.849	49
593.043	48.34
593.236	48.47
593.43	48.82
593.623	50.01
593.817	50.17
594.01	49.29
594.203	49.91
594.397	50.53
594.59	50.72
594.784	50.97
594.977	50.81
595.17	51.68
595.364	51.41
595.557	51.54
595.75	52.04
595.943	53.81
596.137	52.79
596.33	53.76
596.523	53.57
596.716	53.53
596.909	54.5
597.102	54.61
597.296	54.93
597.489	55.37
597.682	55.34
597.875	55.35
598.068	55.47
598.261	56.63
598.454	57
598.647	57.21
598.84	58.08
599.033	58.63
599.226	58.66
599.419	59.76
599.611	59.94
599.804	59.3
599.997	59.21
600.19	59.8
600.383	59.67
600.576	60.37
600.768	59.88
600.961	60.16
601.154	61
601.347	61.67
601.539	61.79
601.732	62.47
601.925	62.17
602.117	61.77
602.31	62.63
602.502	62.1
602.695	63.2
602.888	62.57
603.08	63.85
603.273	62.59
603.465	63.78
603.658	63.41
603.85	64.24
604.043	64.59
604.235	64.48
604.427	65.03
604.62	65.33
604.812	64.89
605.004	64.86
605.197	65.83
605.389	65.34
605.581	65.53
605.774	65.69
605.966	66.11
606.158	65.8
606.35	65.94
606.543	66.42
606.735	67.28
606.927	66.44
607.119	66.94
607.311	66.67
607.503	67.26
607.695	67.22
607.887	67.58
608.079	68.24
608.271	68.59
608.463	68.86
608.655	68.05
608.847	68.82
609.039	68.87
609.231	69.67
609.423	69.88
609.615	70.36
609.807	70.19
609.999	70.56
610.191	70.13
610.382	70.93
610.574	71.07
610.766	71.12
610.958	70.72
611.15	70.59
611.341	71.03
611.533	71.53
611.725	71.64
611.916	71.97
612.108	71.85
612.3	72.97
612.491	71.34
612.683	72.13
612.874	71.97
613.066	71.32
613.257	71.92
613.449	72.23
613.64	71.99
613.832	73.07
614.023	73.71
614.215	73.63
614.406	73.21
614.598	73.29
614.789	74.44
614.98	73.35
615.172	73.19
615.363	72.87
615.554	72.25
615.746	74.07
615.937	74.07
616.128	75.34
616.319	73.74
616.511	73.56
616.702	73.06
616.893	74.27
617.084	72.74
617.275	73.66
617.466	72.76
617.658	72.89
617.849	73.8
618.04	72.82
618.231	73.96
618.422	74.2
618.613	73.73
618.804	74.41
618.995	73.65
619.186	73.66
619.377	75.34
619.568	74.03
619.758	75.4
619.949	74.82
620.14	73.63
620.331	73.99
620.522	74.74
620.713	74.05
620.903	74.09
621.094	73.84
621.285	74.51
621.476	73.61
621.666	75.45
621.857	75.32
622.048	73.72
622.238	74.94
622.429	75.31
622.62	76.95
622.81	75.01
623.001	74.93
623.191	75.04
623.382	74.1
623.572	74.25
623.763	75.05
623.953	74.67
624.144	75.02
624.334	76.28
624.525	75.69
624.715	76
624.905	75.74
625.096	76.23
625.286	75.51
625.477	75.21
625.667	76.37
625.857	76.03
626.047	75.47
626.238	75.42
626.428	75.57
626.618	74.85
626.808	74.74
626.999	74.96
627.189	75.18
627.379	74.56
627.569	74.15
627.759	75.17
627.949	75.26
628.139	74.87
628.329	75.39
628.519	74.53
628.709	75.15
628.899	74.6
629.089	74.13
629.279	74.46
629.469	74.57
629.659	75.09
629.849	74.5
630.039	74.36
630.229	74.85
630.419	74.17
630.609	74.72
630.798	74.49
630.988	74.16
631.178	74.14
631.368	74.27
631.557	74.74
631.747	74.6
631.937	74.49
632.127	75.32
632.316	74.34
632.506	75.46
632.696	74.91
632.885	75.03
633.075	75.03
633.264	73.89
633.454	74.01
633.643	74.71
633.833	74.39
634.022	74.73
634.212	74.38
634.401	73.49
634.591	74.02
634.78	73.26
634.97	73.75
635.159	73.81
635.348	73.71
635.538	73.79
635.727	73.26
635.916	73.12
636.106	73.02
636.295	73.17
636.484	73.83
636.674	73.61
636.863	72.8
637.052	72.77
637.241	73.35
637.43	73.24
637.619	72.41
637.809	72.52
637.998	71.84
638.187	72.14
638.376	71.67
638.565	72.21
638.754	71.56
638.943	71.91
639.132	72.07
639.321	72.58
639.51	71.56
639.699	72.75
639.888	71.65
640.077	73.05
640.266	72.77
640.455	73.48
640.643	73.95
640.832	74.09
641.021	74.25
641.21	72.98
641.399	72.65
641.587	72.61
641.776	72.46
641.965	72.84
642.154	72.97
642.342	73.19
642.531	73.09
642.72	72.54
642.908	73.32
643.097	72.28
643.286	72.25
643.474	73.42
643.663	72.2
643.851	71.88
644.04	71.46
644.228	71.58
644.417	72.57
644.605	71.81
644.794	71.48
644.982	71.31
645.171	71.77
645.359	72.11
645.547	71.55
645.736	70.85
645.924	70.29
646.112	71.01
646.301	70.53
646.489	71.87
646.677	71.62
646.866	71.56
647.054	71.8
647.242	72.01
647.43	72.34
647.618	72.43
647.807	71.75
647.995	72.1
648.183	72.78
648.371	72.68
648.559	72.3
648.747	72.09
648.935	72.87
649.123	71.41
649.311	71.51
649.499	71.59
649.687	70.38
649.875	69.63
650.063	69.97
650.251	69.45
650.439	69.8
650.627	70.78
650.815	71.03
651.003	71.1
651.191	71.19
651.378	70.82
651.566	71.34
651.754	70.75
651.942	71.63
652.13	71.36
652.317	71.4
652.505	71.19
652.693	71.35
652.88	71.19
653.068	70.6
653.256	71.63
653.443	71.13
653.631	70.22
653.819	70.43
654.006	70.11
654.194	70.81
654.381	69.99
654.569	70.56
654.756	70.58
654.944	71.08
655.131	71.39
655.319	70.9
655.506	70.32
655.693	70.97
655.881	71.18
656.068	70.53
656.256	72.47
656.443	71.19
656.63	70.88
656.818	71.63
657.005	71.1
657.192	71.6
657.379	70.83
657.567	70.72
657.754	69.83
657.941	71.54
658.128	72.18
658.315	71.93
658.502	70.87
658.69	71.85
658.877	71.94
659.064	70.4
659.251	70.31
659.438	70.58
659.625	69.48
659.812	70.88
659.999	70.39
660.186	70.12
660.373	70.3
660.56	70.87
660.747	70.11
660.934	70.42
661.121	69.83
661.308	70.9
661.494	70.35
661.681	70.04
661.868	70.08
662.055	70.84
662.242	70.37
662.428	71.08
662.615	71.56
662.802	70.77
662.989	70.88
663.175	72.4
663.362	71.55
663.549	70.56
663.735	71.16
663.922	71.31
664.109	70.23
664.295	70.7
664.482	70.68
664.668	70.48
664.855	70.58
665.041	70.84
665.228	70.12
665.414	70.75
665.601	70.72
665.787	70.93
665.974	70.8
666.16	70.6
666.347	71.13
666.533	70.29
666.719	71.12
666.906	71.27
667.092	70.64
667.278	72.23
667.465	70.28
667.651	69.74
667.837	71.11
668.023	71.59
668.21	71.79
668.396	71.02
668.582	70.48
668.768	71.12
668.954	72.05
669.14	70.84
669.327	72.03
669.513	71.32
669.699	72.11
669.885	71.83
670.071	71.99
670.257	72.04
670.443	71.54
670.629	71.21
670.815	71.04
671.001	70.94
671.187	71.03
671.373	70.54
671.559	71.93
671.744	72.16
671.93	71.51
672.116	72.06
672.302	72.85
672.488	71.72
672.674	71.69
672.859	71.34
673.045	72.85
673.231	70.82
673.417	71.19
673.602	71.31
673.788	70.66
673.974	71.4
674.159	70.39
674.345	70.13
674.531	70.65
674.716	71.09
674.902	70.94
675.087	71.34
675.273	71.69
675.459	70.37
675.644	70.41
675.83	70.72
676.015	71.44
676.2	70.67
676.386	70.78
676.571	70.54
676.757	71.35
676.942	71.09
677.128	71.46
677.313	71.7
677.498	71.31
677.684	70.35
677.869	70.28
678.054	72.06
678.24	70.58
678.425	72.45
678.61	70.8
678.795	71.26
678.98	71.48
679.166	71.91
679.351	70.19
679.536	70.73
679.721	71.03
679.906	70.63
680.091	70.92
680.276	70.74
680.461	70.15
680.647	70.57
680.832	70.59
681.017	70.38
681.202	70.29
681.387	70.53
681.572	69.98
681.756	69.95
681.941	69.37
682.126	70.49
682.311	70.57
682.496	69.4
682.681	70.32
682.866	70.8
683.051	70.1
683.235	70.2
683.42	71.92
683.605	71.1
683.79	71.49
683.974	71.18
684.159	71.24
684.344	71.47
684.529	72.14
684.713	71.7
684.898	71.52
685.083	71.61
685.267	70.72
685.452	71.38
685.636	71.22
685.821	71.34
686.005	71.18
686.19	71.78
686.375	71.89
686.559	71.38
686.744	70.98
686.928	70.44
687.112	70.14
687.297	70.83
687.481	70.56
687.666	70.73
687.85	70.74
688.034	71.08
688.219	71.46
688.403	71.46
688.587	72.9
688.772	71.19
688.956	71.22
689.14	72.13
689.324	72.78
689.509	71.56
689.693	71.59
689.877	72.12
690.061	72.55
690.245	72.03
690.43	71.84
690.614	71.83
690.798	70.93
690.982	71.35
691.166	72.02
691.35	71.51
691.534	72.14
691.718	72.08
691.902	72.52
692.086	72.37
692.27	72.72
692.454	72.93
692.638	73.77
692.822	72.43
693.006	71.74
693.19	72.44
693.373	72.47
693.557	71.62
693.741	72.69
693.925	72.51
694.109	72.53
694.293	72.75
694.476	71.56
694.66	72.19
694.844	70.79
695.027	71.53
695.211	70.46
695.395	71.07
695.578	70.87
695.762	69.47
695.946	71.27
696.129	70.95
696.313	71.16
696.497	71.33
696.68	70.63
696.864	71.18
697.047	71.22
697.231	70.51
697.414	69.89
697.598	70.28
697.781	70.74
697.965	70.75
698.148	71.79
698.331	70.8
698.515	71.38
698.698	70.35
698.881	71.28
699.065	71.42
699.248	70.63
699.431	70.3
699.615	69.9
699.798	69.41
699.981	70.22
700.165	70.41
700.348	70.07
700.531	70.47
700.714	70.74
700.897	70.03
701.08	70.6
701.264	71.2
701.447	71.26
701.63	69.78
701.813	70
701.996	68.66
702.179	70.54
702.362	69.86
702.545	70.62
702.728	70.14
702.911	70.65
703.094	70.64
703.277	70.33
703.46	71.91
703.643	70.9
703.826	70.79
704.009	70.63
704.191	70.69
704.374	71.84
704.557	70.37
704.74	71.08
704.923	70.62
705.106	69.82
705.288	70.11
705.471	70.38
705.654	71.43
705.837	71.35
706.019	71.22
706.202	71.59
706.385	70.98
706.567	70.95
706.75	71.84
706.932	71.83
707.115	71.65
707.298	70.51
707.48	71.39
707.663	71.35
707.845	70.69
708.028	71.4
708.21	71.71
708.393	71.58
708.575	71.38
708.758	70.97
708.94	71.45
709.123	72.04
709.305	69.72
709.487	70.54
709.67	70.85
709.852	70.48
710.034	70.28
710.217	69.99
710.399	69.6
710.581	70.44
710.764	69.78
710.946	70.09
711.128	68.83
711.31	68.84
711.492	68.98
711.675	69.95
711.857	69.35
712.039	69.91
712.221	70.12
712.403	70.01
712.585	69.75
712.767	69.93
712.949	70.4
713.131	70.31
713.314	69.63
713.496	68.96
713.678	68.7
713.86	68.63
714.041	68.28
714.223	70.47
714.405	69.68
714.587	69.57
714.769	69.15
714.951	68.57
715.133	68.42
715.315	69.26
715.497	68.71
715.678	67.56
715.86	68.04
716.042	68.83
716.224	68.59
716.406	68.75
716.587	68.34
716.769	68.03
716.951	68.51
717.132	68.89
717.314	69.51
717.496	67.52
717.677	68.25
717.859	68.2
718.041	68.79
718.222	67.89
718.404	67.58
718.585	68.4
718.767	66.94
718.948	68.32
719.13	68.6
719.311	68.7
719.493	69.29
719.674	68.91
719.856	68.72
720.037	68.96
720.219	69.19
720.4	68.78
720.581	69.03
720.763	69.37
720.944	66.94
721.125	68.78
721.307	68.31
721.488	68
721.669	68.9
721.85	67.96
722.032	67.03
722.213	67.81
722.394	68.22
722.575	68.74
722.756	68.37
722.938	68.15
723.119	67.38
723.3	68.34
723.481	67.77
723.662	67.09
723.843	66.46
724.024	66.25
724.205	66.06
724.386	67.65
724.567	67.11
724.748	66.52
724.929	66.07
725.11	65.71
725.291	67.3
725.472	67.74
725.653	67.76
725.834	66.63
726.015	66.48
726.196	66.42
726.377	65.82
726.557	65.15
726.738	66.87
726.919	65.06
727.1	65.79
727.281	65.7
727.461	65.83
727.642	65.34
727.823	65.41
728.004	66.3
728.184	65.56
728.365	67.1
728.546	65.29
728.726	66.36
728.907	65.71
729.087	66.74
729.268	66.3
729.449	65.77
729.629	66.3
729.81	65.67
729.99	65.57
730.171	65.88
730.351	65.44
730.532	65.52
730.712	64.97
730.893	66.58
731.073	65.13
731.253	65.52
731.434	65.61
731.614	66.27
731.795	65.83
731.975	65.07
732.155	65.45
732.336	65.81
732.516	65.52
732.696	65.93
732.876	66.56
733.057	66.49
733.237	65.9
733.417	66.05
733.597	65.75
733.778	65.79
733.958	66.53
734.138	65.3
734.318	64.63
734.498	64.94
734.678	64.99
734.858	65.45
735.038	65.29
735.218	64.74
735.398	64.86
735.579	64.53
735.759	64.12
735.939	64.29
736.119	64.91
736.298	65.16
736.478	63.67
736.658	63.36
736.838	62.68
737.018	63.76
737.198	64.24
737.378	63.17
737.558	64.06
737.738	63.18
737.917	62.85
738.097	62.19
738.277	63.68
738.457	62.77
738.637	62.33
738.816	62.1
738.996	61.89
739.176	62.23
739.355	63.79
739.535	61.55
739.715	62.87
739.894	63.76
740.074	64.48
740.254	64.42
740.433	62.76
740.613	63.41
740.792	63.78
740.972	63.92
741.151	62.44
741.331	62.81
741.51	61.74
741.69	62.1
741.869	62.86
742.049	61.69
742.228	62.47
742.408	62.41
742.587	62.85
742.766	60.73
742.946	61.93
743.125	61.85
743.305	62.46
743.484	61.82
743.663	62.81
743.842	62.16
744.022	62.23
744.201	61.77
744.38	62.26
744.56	61.64
744.739	62.91
744.918	61.95
745.097	61.35
745.276	61.41
745.455	60.59
745.635	60.68
745.814	60.22
745.993	62.19
746.172	60.88
746.351	59.83
746.53	61.26
746.709	60.79
746.888	60.83
747.067	60.72
747.246	59.72
747.425	61.02
747.604	61.29
747.783	61.25
747.962	60.83
748.141	61.08
748.32	61.38
748.499	61.49
748.677	59.9
748.856	60.25
749.035	60.75
749.214	60.59
749.393	60.65
749.572	58.88
749.75	59.85
749.929	60.39
750.108	60.4
750.287	60.63
750.465	60.51
750.644	59.89
750.823	59.88
751.001	59.41
751.18	60.51
751.359	59.98
751.537	59.45
751.716	59.74
751.894	59.63
752.073	59.69
752.251	60.17
752.43	59.1
752.609	60.42
752.787	59.34
752.966	60.9
753.144	59.71
753.322	58.36
753.501	58.5
753.679	58.58
753.858	58.32
754.036	60.44
754.215	59.2
754.393	59.84
754.571	59.42
754.75	59.8
754.928	59.5
755.106	59.62
755.284	59.91
755.463	58.99
755.641	59.9
755.819	59.08
755.997	60.87
756.176	60.15
756.354	58.9
756.532	58.5
756.71	59.71
756.888	58.5
757.066	58.33
757.245	59.6
757.423	58.4
757.601	57.08
757.779	57.97
757.957	58.39
758.135	59.5
758.313	59.35
758.491	59.3
758.669	58.66
758.847	58.2
759.025	58.91
759.203	58.47
759.381	58.6
759.559	59.23
759.737	58.61
759.915	58.86
760.092	58.13
760.27	57.89
760.448	57.82
760.626	58.44
760.804	58.33
760.981	57.93
761.159	57.06
761.337	56.5
761.515	56.05
761.692	57.28
761.87	56.63
762.048	55.23
762.226	58.15
762.403	56.36
762.581	55.88
762.759	57.46
762.936	57.53
763.114	57.5
763.291	56.18
763.469	56.73
763.647	56.88
763.824	57.28
764.002	57.48
764.179	56.87
764.357	57.18
764.534	58.12
764.712	58.5
764.889	56.24
765.066	57.35
765.244	56.83
765.421	56.2
765.599	56.92
765.776	56.47
765.953	56.58
766.131	58.43
766.308	57.29
766.485	58.77
766.663	57.03
766.84	57.47
767.017	56.68
767.194	55.88
767.372	56.42
767.549	55.52
767.726	56.93
767.903	56.19
768.081	55.97
768.258	54.94
768.435	55.78
768.612	58.39
768.789	57.74
768.966	56.83
769.143	55.55
769.32	55.33
769.497	55.06
769.674	53.94
769.851	56.17
770.028	54.1
770.205	54.98
770.382	54.6
770.559	54.16
770.736	53.46
770.913	54.22
771.09	55.86
771.267	55.52
771.444	55.82
771.621	53.85
771.798	54.86
771.975	55.09
772.151	56.45
772.328	54.6
772.505	55.24
772.682	55.26
772.859	54.38
773.035	54.91
773.212	55.92
773.389	54.95
773.565	56.02
773.742	55.56
773.919	54.96
774.096	56
774.272	55.75
774.449	54.96
774.625	55.55
774.802	54.57
774.979	56.72
775.155	55.54
775.332	54.76
775.508	57.46
775.685	55.31
775.861	56.39
776.038	57.6
776.214	54.19
776.391	55.08
776.567	54.48
776.744	55.34
776.92	55.59
777.096	53.24
777.273	55.48
777.449	56.2
777.626	54.11
777.802	54.26
777.978	56.49
778.155	52.93
778.331	54.27
778.507	54.95
778.683	52.25
778.86	54.22
779.036	53.88
779.212	53.84
779.388	52.71
779.565	53.71
779.741	52.77
779.917	54.87
780.093	52.04
780.269	54.78
780.445	53.49
780.621	54.64
780.797	53.78
780.974	54.03
781.15	53.75
781.326	53.53
781.502	53.4
781.678	54.79
781.854	52.41
782.03	50.69
782.206	55.88
782.382	54.43
782.558	52.37
782.733	53.32
782.909	51.77
783.085	55.87
783.261	52.03
783.437	51.5
783.613	55.03
783.789	54.33
783.965	54.42
784.14	53.27
784.316	53.92
784.492	53.25
784.668	52.23
784.843	53.46
785.019	54.15
785.195	50.38
785.371	54.77
785.546	53.4
785.722	54.08
785.898	55.05
786.073	56.57
786.249	54.85
786.424	54.55
786.6	54.28
786.776	52.39
786.951	53.39
787.127	54.44
787.302	53.99
787.478	52.75
787.653	54.98
787.829	53.94
788.004	54.81
788.18	52.46
788.355	56.31
788.531	52.18
788.706	53.28
788.881	50.46
789.057	51.28
789.232	51.72
789.408	54.3
789.583	53.49
789.758	51.97
789.934	54.15
790.109	54.54
790.284	53.8
790.459	52.02
790.635	50.64
790.81	54.66
790.985	54.68
791.16	54.04
791.336	52.09
791.511	53.18
791.686	51.82
791.861	51.6
792.036	53.35
792.211	52.32
792.387	51.02
792.562	52.66
792.737	52.6
792.912	53.3
793.087	52.77
793.262	52.81
793.437	53.18
793.612	52.96
793.787	52.85
793.962	50.84
794.137	51.83
794.312	53.88
794.487	53.44
794.662	54.65
794.837	51.36
795.011	53.47
795.186	57.29
795.361	53.07
795.536	52.73
795.711	53.72
795.886	52.22
796.06	53.06
796.235	52.21
796.41	51.35
796.585	53.54
796.76	50.08
796.934	51.97
797.109	54.95
797.284	51.32
797.458	54.1
797.633	53.26
797.808	54.77
797.982	52.07
798.157	54.19
798.332	52.79
798.506	54.42
798.681	52.14
798.855	55.77
799.03	53.7
799.204	54.8
799.379	55.8
799.553	49.64
799.728	51.6
799.902	54.25
800.077	52.18
800.251	51.71
800.426	48.99
800.6	52.24
800.775	50.67
800.949	55.05
801.123	52.94
801.298	54.06
801.472	54.03
801.647	50.84
801.821	51.89
801.995	50.96
802.169	50.43
802.344	49.79
802.518	47.53
802.692	46.7
802.867	50.64
803.041	48.73
803.215	50.32
803.389	50.18
803.563	51.4
803.737	51.73
803.912	51.72
804.086	54.83
804.26	53.16
804.434	51.91
804.608	53.4
804.782	53.03
804.956	54.25
805.13	48.59
805.304	50.76
805.478	50.94
805.652	56.94
805.826	55.69
806	55.84
806.174	55.6
806.348	52.9
806.522	57.53
806.696	50.09
806.87	60.43
807.044	51.09
807.218	53.96
807.392	54.23
807.566	50.38
807.739	53.76
807.913	50.47
808.087	50.97
808.261	51.12
808.435	56.05
808.608	50.34
808.782	52.3
808.956	51.09
809.13	48.66
809.303	49.79
809.477	52.49
809.651	51.52
809.824	56.38
809.998	51.8
810.172	53.35
810.345	51.28
810.519	53.64
810.692	51.71
810.866	46.94
811.04	48.61
811.213	49.02
811.387	57.27
811.56	49.98
811.734	51.62
811.907	57.64
812.081	54.47
812.254	50.26
812.428	48.99
812.601	54.17
812.774	55.32
812.948	47.83
813.121	51.48
813.295	49.89
813.468	52.41
813.641	52.62
813.815	50.1
813.988	51.14
814.161	49.07
814.335	53.74
814.508	50.51
814.681	47.43
814.854	47.49
815.028	49.89
815.201	51.76
815.374	48.17
815.547	51.91
815.72	56.81
815.894	55.6
816.067	49.56
816.24	49.69
816.413	55.02
816.586	57.95
816.759	50.99
816.932	52.09
817.105	52.42
817.278	55.19
817.452	52.82
817.625	58.34
817.798	49.76
817.971	50.96
818.144	49.58
818.317	52.6
818.49	50.36
818.662	53.86
818.835	51.19
819.008	48.87
819.181	49.3
819.354	53.1
819.527	50.22
819.7	53.02
819.873	50.83
820.046	55.82
820.218	48.33
820.391	52.05
820.564	54.71
820.737	52.96
820.909	59.13
821.082	54.31
821.255	55.18
821.428	52.06
821.6	56.08
821.773	52.83
821.946	48.32
822.118	51.11
822.291	55.26
822.464	47.38
822.636	53.31
822.809	51.75
822.982	54.61
823.154	50.96
823.327	48.26
823.499	52.93
823.672	50.97
823.844	50.7
824.017	55.97
824.189	52.75
824.362	50.02
824.534	54.39
824.707	50.26
824.879	50.02
825.052	49.81
825.224	50.27
825.396	55.22
825.569	51.89
825.741	52.13
825.914	52.53
826.086	54.78
826.258	52.6
826.431	51.72
826.603	49.03
826.775	50.96
826.947	51.69
827.12	53.47
827.292	55.24
827.464	50.9
827.636	55.45
827.809	55.01
827.981	50.32
828.153	51.13
828.325	51.85
828.497	55.32
828.669	53.28
828.842	49.28
829.014	54.99
829.186	51.28
829.358	53.34
829.53	51.24
829.702	52.99
829.874	56.3
830.046	53.76
830.218	54.33
830.39	54.91
830.562	54.76
830.734	56.02
830.906	54.17
831.078	50.16
831.25	53.55
831.422	52.01
831.594	52.69
831.766	53.53
831.937	52.23
832.109	53.94
832.281	50.75
832.453	51.81
832.625	52.36
832.797	50.5
832.968	54.04
833.14	50.34
833.312	50.07
833.484	52.18
833.655	50.65
833.827	52.93
833.999	52.01
834.171	53.96
834.342	52.58
834.514	55.57
834.686	51.88
834.857	55.91
835.029	46.12
835.2	52.79
835.372	54.76
835.544	52.98
835.715	54.03
835.887	54.1
836.058	55.23
836.23	49.66
836.401	51.83
836.573	50.94
836.744	51.75
836.916	54.96
837.087	50.56
837.259	50.63
837.43	50.71
837.602	54.42
837.773	54.5
837.945	51.53
838.116	52.12
838.287	49.42
838.459	53
838.63	53.56
838.801	54.6
838.973	50.51
839.144	50.56
839.315	53.76
839.487	56.16
839.658	53.44
839.829	54.08
840	51.99
840.172	56.06
840.343	60.43
840.514	54.77
840.685	55.95
840.856	54.39
841.027	56.37
841.199	61.83
841.37	55.69
841.541	59.68
841.712	55.15
841.883	56.55
842.054	60.56
842.225	62.9
842.396	53.76
842.567	49.58
842.738	54.68
842.909	55.31
843.08	57.36
843.251	51.82
843.422	54.6
843.593	55.27
843.764	53.75
843.935	49.76
844.106	55.77
844.277	57.13
844.448	55.47
844.619	54.45
844.79	57.59
844.96	55.7
845.131	55.01
845.302	55.52
845.473	58.22
845.644	56.21
845.814	51.04
845.985	51.72
846.156	51.41
846.327	46.36
846.497	54.45
846.668	58.41
846.839	54.17
847.01	55.4
847.18	56.9
847.351	54.98
847.522	49.35
847.692	56.62
847.863	54.27
848.033	54.8
848.204	56.61
848.375	53.52
848.545	52.38
848.716	53.35
848.886	50.72
849.057	51.58
849.227	55
849.398	50.83
849.568	51.23
849.739	55.55
849.909	56.04
850.08	55.52
850.25	56.52
850.421	57.88
850.591	55.35
850.761	48.3
850.932	59.2
851.102	53.1
851.272	57.57
851.443	56.79
851.613	53.84
851.783	55.11
851.954	57.61
852.124	52.84
852.294	48.01
852.465	61.06
852.635	49.05
852.805	56.38
852.975	48.78
853.145	53.9
853.316	64.18
853.486	57.89
853.656	57.22
853.826	63.29
853.996	52
854.166	55.72
854.337	58.44
854.507	54.68
854.677	56.85
854.847	56.23
855.017	59.57
855.187	50.85
855.357	52.41
855.527	45.37
855.697	51.07
855.867	51.19
856.037	51.89
856.207	55.61
856.377	49.48
856.547	52.91
856.717	63.67
856.887	59.38
857.057	65.64
857.227	55.68
857.397	58.6
857.566	56.08
857.736	57.24
857.906	66.01
858.076	65.64
858.246	57.99
858.416	59.6
858.585	56.03
858.755	62.81
858.925	57.08
859.095	62.96
859.264	63.39
859.434	62.11
859.604	53.81
859.774	60
859.943	58.47
860.113	50.22
860.283	55.82
860.452	53.61
860.622	64.83
860.791	62.49
860.961	68
861.131	53.64
861.3	52.44
861.47	57.36
861.639	46.53
861.809	68.76
861.978	54.74
862.148	62.65
862.318	54.37
862.487	61.15
862.657	55.95
862.826	56.57
862.995	57.79
863.165	68.63
863.334	64.07
863.504	60.99
863.673	59.17
863.843	53.27
864.012	59.53
864.181	63.38
864.351	53.84
864.52	56.55
864.689	59.96
864.859	55.62
865.028	63.22
865.197	59.36
865.366	63.78
865.536	60.48
865.705	61.35
865.874	53.79
866.043	58.52
866.213	58.68
866.382	53.54
866.551	61.11
866.72	60.04
866.889	51.29
867.059	54.49
867.228	53.34
867.397	61.48
867.566	50.79
867.735	58.58
867.904	61.34
868.073	67.99
868.242	53.44
868.411	57.83
868.58	55.69
868.749	63.78
868.918	55.11
869.087	53.4
869.256	67.61
869.425	52.83
869.594	54.26
869.763	58.97
869.932	55.18
870.101	52.48
870.27	56.1
870.439	47
870.608	52.53
870.777	55.24
870.945	60.94
871.114	63.46
871.283	66.63
871.452	49.42
871.621	52.3
871.789	57.76
871.958	66.31
872.127	64.71
872.296	58.94
872.464	61.55
872.633	70.21
872.802	67.68
872.971	55.31
873.139	60.5
873.308	53.46
873.477	49.17
873.645	69.89
873.814	67.39
873.983	67.23
874.151	52.62
874.32	68.16
874.488	52.9
874.657	58.9
874.826	58.68
874.994	56.02
875.163	48.52
875.331	67.68
875.5	64.13
875.668	62.84
875.837	53.54
876.005	51.18
876.174	57.12
876.342	56.6
876.51	55.03
876.679	62.42
876.847	51.32
877.016	51.68
877.184	64.92
877.352	61.57
877.521	58.65
877.689	49.68
877.857	48.16
878.026	67.27
878.194	59.2
878.362	59.35
878.531	54.58
878.699	66.14
878.867	56.7
879.036	54.53
879.204	48.65
879.372	52.53
879.54	81.1
879.708	56.24
879.877	52.34
880.045	66.02
880.213	70.62
880.381	64.1
880.549	63.47
880.717	61.3
880.885	61.82
881.054	46.52
881.222	53.74
881.39	57.59
881.558	62.19
881.726	56.52
881.894	57.83
882.062	60.43
882.23	56.57
882.398	63.61
882.566	50.37
882.734	52.11
882.902	67.14
883.07	82.99
883.238	64.21
883.406	58.58
883.574	42.41
883.741	69.19
883.909	66.08
884.077	70.92
884.245	66.83
884.413	45.69
884.581	57.82
884.749	56.18
884.916	63.39
885.084	51.27
885.252	52.38
885.42	80.39
885.587	69.88
885.755	62.48
885.923	61.24
886.091	55.9
886.258	57.83
886.426	57.88
886.594	63.61
886.761	49.91
886.929	59.5
887.097	47.32
887.264	46.85
887.432	59.8
887.6	61.86
887.767	54.97
887.935	54.26
888.102	64.19
888.27	58.73
888.438	75.51
888.605	44.96
888.773	77.33
888.94	50.51
889.108	63.23
889.275	69.42
889.443	57.03
889.61	60.13
889.778	51.56
889.945	51.29
890.112	64.28
890.28	65.59
890.447	66.95
890.615	68.14
890.782	64.85
890.949	69.52
891.117	55.72
891.284	61.55
891.452	50.5
891.619	66.36
891.786	50.73
891.953	45.79
892.121	62.98
892.288	61.97
892.455	65.39
892.623	53.8
892.79	50.65
892.957	57.75
893.124	74.65
893.291	50.08
893.459	60.33
893.626	56.36
893.793	43.3
893.96	61.84
894.127	63.67
894.294	62.72
894.461	57.22
894.629	74.41
894.796	62.22
894.963	66.6
895.13	70.59
895.297	61.75
895.464	63.25
895.631	79.3
895.798	63.5
895.965	60.98
896.132	62.06
896.299	57.17
896.466	53.34
896.633	58.92
896.8	55.97
896.967	58.92
897.134	59.04
897.301	60
897.467	58.38
897.634	49.91
897.801	73.4
897.968	69.52
898.135	66.61
898.302	55.74
898.469	47.95
898.635	76.16
898.802	64
898.969	58.26
899.136	56.92
899.303	45.53
