Data from x0_Transmission_15-14-19-655.txt Node
Date: Thu May 02 15:14:19 EDT 2019
User: dh1006
Spectrometer: USB4E01358
Autoset integration time: false
Trigger mode: 4
Integration Time (sec): 8.000000E-2
Scans to average: 1
Electric dark correction enabled: true
Nonlinearity correction enabled: false
Boxcar width: 0
Stray light correction enabled: false
XAxis mode: Wavelengths
Stop averaging: false
Number of Pixels in Spectrum: 3648
>>>>>Begin Spectral Data<<<<<
176.727	963.33
176.966	963.33
177.205	963.33
177.444	122.47
177.683	-133.53
177.922	105.51
178.161	195.37
178.4	49
178.638	-5450
178.877	-71.01
179.116	30.53
179.355	-604.55
179.593	16.73
179.832	86.91
180.071	-37.13
180.309	-611.11
180.548	63.56
180.786	27.41
181.025	-11300
181.263	27.93
181.502	-26.05
181.74	31.27
181.979	-61.19
182.217	-148.55
182.456	115.07
182.694	-19.62
182.932	-95.24
183.17	50.18
183.409	-245.58
183.647	51.91
183.885	358.95
184.123	158.36
184.361	72.66
184.6	-38.83
184.838	5311.11
185.076	353.57
185.314	-7.84
185.552	54.49
185.79	-64.66
186.028	41.15
186.266	18.48
186.503	61.7
186.741	42.26
186.979	158.9
187.217	-16500
187.455	94.12
187.693	43.21
187.93	15.56
188.168	914.58
188.406	59.2
188.643	5.15
188.881	-410.14
189.119	-7.28
189.356	-262.04
189.594	118.73
189.831	77.69
190.069	-45.85
190.306	-101.82
190.543	58.15
190.781	32.27
191.018	42.76
191.256	250.82
191.493	-263.45
191.73	-35.53
191.967	-250
192.205	-122.83
192.442	-56.76
192.679	3000
192.916	-298.75
193.153	197.99
193.39	-853.57
193.628	557.58
193.865	-66.34
194.102	245.24
194.339	96.1
194.576	15.16
194.813	48.17
195.049	-6.25
195.286	26.48
195.523	-174.9
195.76	57.89
195.997	-33.33
196.234	7.88
196.47	58.79
196.707	652.24
196.944	-31.2
197.18	15.43
197.417	-46.88
197.654	19.66
197.89	-1.47
198.127	6.5
198.363	-63.22
198.6	9.13
198.836	30.22
199.073	-9.73
199.309	53.48
199.546	-6.98
199.782	-237.74
200.018	-1680
200.255	84.26
200.491	-1293.02
200.727	137.72
200.963	22.06
201.199	-107.57
201.436	173.6
201.672	-13.19
201.908	90.78
202.144	-13.64
202.38	-78.95
202.616	65.92
202.852	151.16
203.088	-2.38
203.324	-489.47
203.56	-900
203.796	-3.3
204.032	-9.12
204.268	1375
204.503	75
204.739	-126.01
204.975	-37.59
205.211	47.56
205.446	64.95
205.682	31.73
205.918	-718.6
206.153	-27.21
206.389	212.22
206.625	62.66
206.86	92.73
207.096	-71.25
207.331	38.54
207.567	-68.28
207.802	-68.71
208.037	10
208.273	3.39
208.508	-177.78
208.744	-135.96
208.979	40.4
209.214	-6750
209.449	-50.54
209.685	-200.49
209.92	197.11
210.155	17.65
210.39	-65.07
210.625	237.5
210.86	-55.78
211.095	138.73
211.33	-42.73
211.565	-454.63
211.8	280.46
212.035	281.82
212.27	70.02
212.505	215.6
212.74	17.26
212.975	1227.27
213.21	75.75
213.444	28.57
213.679	-19.73
213.914	-46.56
214.149	-73.36
214.383	21.92
214.618	57.67
214.853	-106.78
215.087	43.55
215.322	107.6
215.556	-174.87
215.791	-1141.86
216.025	-223.14
216.26	-172.95
216.494	540.54
216.729	-141.67
216.963	-160.28
217.197	7.46
217.432	-70.08
217.666	289.02
217.9	-21.75
218.135	13.82
218.369	9211.11
218.603	96.41
218.837	25.79
219.071	237.5
219.306	-41.03
219.54	102.08
219.774	85.4
220.008	182.04
220.242	-223.14
220.476	782.35
220.71	19.93
220.944	72.75
221.178	-154.88
221.411	-133.45
221.645	38.32
221.879	42.99
222.113	-3196.67
222.347	63.1
222.58	-44.59
222.814	3.47
223.048	-45.37
223.281	-77.69
223.515	411.5
223.749	-176.88
223.982	-189.58
224.216	257
224.449	314.47
224.683	-197.3
224.916	-93.52
225.15	3.05
225.383	933
225.617	-16.08
225.85	9.13
226.083	89.13
226.317	104.55
226.55	145.23
226.783	50.93
227.016	-104.03
227.25	-677.14
227.483	-505.36
227.716	-40.12
227.949	41.48
228.182	25.63
228.415	-163.61
228.648	-298.75
228.881	110.52
229.114	-2.82
229.347	33.6
229.58	608
229.813	106.45
230.046	-53.03
230.279	33.76
230.512	24.8
230.745	-8.57
230.977	41.15
231.21	73.22
231.443	-29.33
231.675	-124.37
231.908	-1129.41
232.141	97.77
232.373	-598.95
232.606	-351.7
232.839	-114.26
233.071	-200.89
233.304	-146.59
233.536	-188.42
233.769	190.32
234.001	40.79
234.233	-225.93
234.466	4.52
234.698	438.24
234.93	-97.59
235.163	33.66
235.395	-1111.63
235.627	-3.79
235.86	-673.91
236.092	-38.83
236.324	16.36
236.556	4.74
236.788	16.27
237.02	-94.37
237.252	80.4
237.484	19.92
237.716	-640
237.948	-67.66
238.18	-137.19
238.412	106.03
238.644	379.69
238.876	-201.25
239.108	25.63
239.34	421.31
239.571	4.68
239.803	-55.99
240.035	245.76
240.267	108.65
240.498	-611.11
240.73	613.11
240.962	47.24
241.193	113.72
241.425	55.23
241.656	287.77
241.888	-9.78
242.119	33.01
242.351	158.14
242.582	38.21
242.814	-94.21
243.045	43.4
243.277	147.76
243.508	505.41
243.739	-110.98
243.971	39.81
244.202	2.27
244.433	136.99
244.664	0.42
244.896	42.09
245.127	8.4
245.358	-853.57
245.589	-65.9
245.82	231.41
246.051	58.97
246.282	30.07
246.513	166.29
246.744	31.55
246.975	-202.44
247.206	91.09
247.437	48.45
247.668	-298.15
247.899	24.74
248.129	10
248.36	-20.32
248.591	-72.2
248.822	-12.27
249.052	-376.12
249.283	-6.58
249.514	2.56
249.744	27.42
249.975	62.66
250.206	-57.22
250.436	52.28
250.667	269.06
250.897	54.23
251.128	-34.26
251.358	435.14
251.589	244.72
251.819	53.33
252.049	-3.61
252.28	88
252.51	-48.13
252.74	125.41
252.971	-900
253.201	19.88
253.431	32.96
253.661	32.08
253.891	-315
254.121	16.44
254.352	-56.44
254.582	1142.86
254.812	125.5
255.042	-50.75
255.272	-6.04
255.502	124.46
255.732	-1477.78
255.962	868.85
256.192	71.03
256.421	-29.04
256.651	-5.16
256.881	-79.56
257.111	113.36
257.341	0.69
257.57	113.43
257.8	-5.5
258.03	-5.5
258.259	18.5
258.489	41.23
258.719	59.1
258.948	-85.1
259.178	51.73
259.407	238.94
259.637	-11.67
259.866	-168.75
260.096	-109.55
260.325	249.71
260.555	-211.76
260.784	32.82
261.013	-203.57
261.243	36.87
261.472	136.49
261.701	128.44
261.931	-121.97
262.16	29.65
262.389	99.75
262.618	-126.89
262.847	60.64
263.076	-7.63
263.305	-60.63
263.535	-23.11
263.764	38.14
263.993	62.91
264.222	60.67
264.451	10.98
264.679	3
264.908	0.34
265.137	54.1
265.366	21.18
265.595	133.92
265.824	24.31
266.053	59.35
266.281	-208.67
266.51	-9.14
266.739	17.55
266.967	58.42
267.196	-4150
267.425	33.76
267.653	-34.16
267.882	13.82
268.11	80.16
268.339	-6.48
268.567	-372.64
268.796	-113.45
269.024	214.29
269.253	-111.81
269.481	23.25
269.709	71.45
269.938	19.88
270.166	-37.56
270.394	36.47
270.623	50.91
270.851	133.92
271.079	38.57
271.307	8.79
271.535	111.74
271.764	56.94
271.992	234.04
272.22	6.58
272.448	-10.53
272.676	103.51
272.904	-93.1
273.132	-7.97
273.36	-36.78
273.588	82.49
273.816	50.18
274.043	18.71
274.271	49.21
274.499	-33.33
274.727	-165.74
274.955	19.15
275.182	-17.94
275.41	-166.13
275.638	-116.25
275.866	1672.92
276.093	88.3
276.321	-59.91
276.548	85.4
276.776	20.48
277.003	73.69
277.231	1365.71
277.458	-16.34
277.686	26.25
277.913	-233.75
278.141	31.73
278.368	-16
278.595	16.27
278.823	-646.34
279.05	-130.32
279.277	-65.86
279.505	-250
279.732	-247.41
279.959	697.14
280.186	-12.04
280.413	16.96
280.641	129.48
280.868	0.6
281.095	44.96
281.322	-466.67
281.549	-43.78
281.776	-27.82
282.003	39.35
282.23	-39.31
282.457	38.32
282.683	43.43
282.91	-201.25
283.137	-40.08
283.364	3945.45
283.591	-124.37
283.818	-17475
284.044	-1444.19
284.271	90.16
284.498	-67.66
284.724	22.94
284.951	15.56
285.178	4.87
285.404	11.47
285.631	112.94
285.857	2.78
286.084	-59.91
286.31	-72.73
286.537	9.7
286.763	-20.77
286.99	-57.48
287.216	5600
287.442	-77.55
287.669	-17.43
287.895	39.43
288.121	175.54
288.347	-47.9
288.574	7.51
288.8	19.92
289.026	-171.21
289.252	-37.62
289.478	31.34
289.704	13.92
289.931	36.12
290.157	58.66
290.383	-5.21
290.609	29.61
290.835	-18.54
291.06	43.65
291.286	-46.98
291.512	-201.16
291.738	82.49
291.964	19.32
292.19	-162.61
292.416	-131.18
292.641	-12.04
292.867	48.65
293.093	1774.29
293.319	62.57
293.544	-67.8
293.77	-12.37
293.995	34.56
294.221	-51.9
294.447	119.18
294.672	23.11
294.898	45.33
295.123	23.86
295.349	83.23
295.574	-43.9
295.799	87.76
296.025	-17.94
296.25	-65.47
296.476	491
296.701	9.54
296.926	-146
297.151	-230.3
297.377	734.29
297.602	-110.13
297.827	60.57
298.052	-30.62
298.277	7.65
298.502	-3.49
298.727	123.62
298.953	-3.14
299.178	28.57
299.403	177.89
299.628	-26.99
299.852	-118.91
300.077	-1205.88
300.302	-21.76
300.527	-12.44
300.752	-53.9
300.977	543
301.202	591.8
301.426	34.91
301.651	-98.33
301.876	535.42
302.101	-154.18
302.325	47.01
302.55	-41.16
302.775	25.54
302.999	-23.95
303.224	-31.08
303.448	21.14
303.673	-779.63
303.897	75.55
304.122	-2.06
304.346	16.04
304.571	15.61
304.795	108.16
305.019	0.5
305.244	79.2
305.468	487.84
305.692	45.45
305.917	-652.89
306.141	-27.18
306.365	-750.82
306.589	-17.86
306.813	83.29
307.038	-8.57
307.262	78.22
307.486	34.76
307.71	-5450
307.934	65.13
308.158	-291.33
308.382	50.22
308.606	-165.57
308.83	28.24
309.054	-258.67
309.278	68.79
309.502	16.96
309.725	-133.53
309.949	-59.44
310.173	38.89
310.397	68.21
310.62	31.34
310.844	-3.61
311.068	-315
311.292	30.74
311.515	6.1
311.739	1131.25
311.962	-32.11
312.186	47.82
312.41	-65.56
312.633	-98.52
312.857	27.92
313.08	-129.63
313.303	6.14
313.527	-29.94
313.75	215.51
313.974	-74.49
314.197	-144.4
314.42	81.76
314.644	-7.23
314.867	-2.59
315.09	-52.46
315.313	1.88
315.536	-52.51
315.76	-155.86
315.983	-72.73
316.206	7.64
316.429	58.75
316.652	-212.44
316.875	5.55
317.098	-1.23
317.321	-12.94
317.544	91.25
317.767	50.88
317.99	-35.33
318.213	18.94
318.436	21.52
318.658	27.39
318.881	-93.01
319.104	-5.48
319.327	58.1
319.55	-159.36
319.772	141.5
319.995	-120
320.218	41.58
320.44	461.9
320.663	119.54
320.885	-131.22
321.108	70.33
321.331	15.85
321.553	-85.44
321.776	725
321.998	40.51
322.22	0.65
322.443	65.15
322.665	99.56
322.888	60.36
323.11	35.17
323.332	28.57
323.555	-58.82
323.777	-120.76
323.999	-26.7
324.221	-95.88
324.443	14.48
324.666	-59.25
324.888	85.43
325.11	-330.58
325.332	-259.8
325.554	-188.68
325.776	74.51
325.998	-53.49
326.22	-372.46
326.442	58.47
326.664	3.21
326.886	-35.38
327.108	-12.41
327.33	128.44
327.551	-19.64
327.773	-29.37
327.995	-5.16
328.217	2.19
328.439	-31.56
328.66	-33.33
328.882	-255.37
329.104	-644.64
329.325	-28.79
329.547	57.21
329.769	-67.66
329.99	-137.41
330.212	932.79
330.433	-26.07
330.655	-38.07
330.876	-34.4
331.098	975.41
331.319	27.98
331.54	81.78
331.762	59.52
331.983	-20.28
332.204	-124.66
332.426	53.97
332.647	290.45
332.868	75.51
333.089	-128.97
333.311	-18.3
333.532	-29.73
333.753	-2026.67
333.974	-32.06
334.195	-48.64
334.416	77.76
334.637	-75.27
334.858	12.66
335.079	-523.68
335.3	-101.07
335.521	-207.54
335.742	-221.74
335.963	0.57
336.184	-17.32
336.405	52.65
336.626	12.7
336.846	-60.76
337.067	-39.52
337.288	32.53
337.509	-1593.33
337.729	-21.17
337.95	-627.91
338.171	53.77
338.391	-112.64
338.612	15.2
338.833	183.33
339.053	-62.31
339.274	33.62
339.494	-5.86
339.715	379.37
339.935	-85.44
340.156	-24.15
340.376	17.77
340.596	3.7
340.817	920
341.037	-27.85
341.257	-24.15
341.478	3.22
341.698	50.27
341.918	-185
342.138	10.5
342.359	1.61
342.579	-59.97
342.799	6.06
343.019	-3.74
343.239	8.68
343.459	36.44
343.679	48.24
343.899	13.21
344.119	-1.32
344.339	112.03
344.559	-9.26
344.779	53.33
344.999	-33.33
345.219	35.15
345.439	-128.87
345.658	7911.11
345.878	47.92
346.098	-89.98
346.318	32.98
346.537	2290.91
346.757	286.18
346.977	21.63
347.196	13.88
347.416	29.12
347.636	-64.12
347.855	-20.59
348.075	-48.11
348.294	237.5
348.514	-250
348.733	33.64
348.953	-598.95
349.172	-44.89
349.392	4.2
349.611	31.73
349.83	-38.04
350.05	10.32
350.269	-56.66
350.488	-3.68
350.707	668.97
350.927	30.04
351.146	15.61
351.365	49.18
351.584	-82.58
351.803	30.08
352.023	23.84
352.242	42.6
352.461	-16
352.68	21.91
352.899	-24.41
353.118	52.28
353.337	-117.05
353.556	-63.74
353.775	2.78
353.993	-78.43
354.212	24.16
354.431	-9.67
354.65	51.77
354.869	5.93
355.088	30.86
355.306	113.56
355.525	18.32
355.744	-40.08
355.962	-166.13
356.181	-21.62
356.4	95.91
356.618	-24.88
356.837	-28.93
357.055	-43.99
357.274	65.67
357.492	-562.96
357.711	14.55
357.929	80.4
358.148	-466.67
358.366	164.33
358.585	137.08
358.803	-29.04
359.021	526.55
359.24	-22.1
359.458	-186.64
359.676	-0.97
359.894	15.91
360.113	-39.3
360.331	-13.03
360.549	697.14
360.767	24.79
360.985	-220.9
361.203	22.9
361.421	14.81
361.639	27.98
361.857	-3.68
362.075	-60.47
362.293	36.76
362.511	-130.7
362.729	-133.42
362.947	-43.9
363.165	1.88
363.383	-42.39
363.601	34.92
363.819	-94.92
364.036	-67.91
364.254	37.06
364.472	-73.09
364.689	30.14
364.907	30.45
365.125	-185
365.342	-148.55
365.56	32.98
365.778	-104.37
365.995	-217.5
366.213	-333.87
366.43	27.86
366.648	-96.53
366.865	-5.29
367.083	67.5
367.3	15.91
367.517	10.98
367.735	-187.31
367.952	10.83
368.17	9.02
368.387	27.84
368.604	2.74
368.821	-66.21
369.039	-6.42
369.256	-24.2
369.473	55.02
369.69	-86.55
369.907	-5450
370.124	2586.36
370.341	208.82
370.558	-42.27
370.776	-5.79
370.993	-36.41
371.21	8.17
371.426	-107.17
371.643	12.41
371.86	34.77
372.077	1.03
372.294	-17.86
372.511	-66.45
372.728	-48.28
372.945	-9.12
373.161	2.61
373.378	-86.55
373.595	43.51
373.811	18.07
374.028	5.4
374.245	-16.75
374.461	-60.76
374.678	30.23
374.895	-58.82
375.111	36.44
375.328	12.44
375.544	786.49
375.761	38.27
375.977	8.68
376.194	31.89
376.41	8.48
376.626	49.26
376.843	22.45
377.059	32.9
377.275	7.79
377.492	52.09
377.708	-21.75
377.924	30.14
378.14	-56.91
378.357	15.61
378.573	-101.9
378.789	-50.14
379.005	19.7
379.221	-53.82
379.437	-31.68
379.653	23.58
379.869	42.47
380.085	-31.79
380.301	-1.98
380.517	-7.65
380.733	-11.97
380.949	-54.49
381.165	-6.09
381.381	46.05
381.597	38.49
381.813	28.14
382.028	-15.14
382.244	-31.8
382.46	-16.42
382.676	-27.43
382.891	-97.45
383.107	30.51
383.323	-1.13
383.538	-146.04
383.754	-35.92
383.969	-2.93
384.185	15.53
384.4	-36.1
384.616	-66.49
384.831	50.71
385.047	-83.06
385.262	7.67
385.478	-32.25
385.693	13
385.909	20.17
386.124	-5.53
386.339	-15.86
386.554	-15.34
386.77	4.6
386.985	-6.49
387.2	-16.78
387.415	-20.22
387.631	-8.24
387.846	-20.1
388.061	-22.53
388.276	-1.47
388.491	29.73
388.706	-21.51
388.921	24.32
389.136	1.95
389.351	1.1
389.566	-38.94
389.781	4.73
389.996	38.72
390.211	0.97
390.426	-4.57
390.641	-10.14
390.855	7.07
391.07	1.13
391.285	-20.49
391.5	-41.44
391.714	-0.55
391.929	1.42
392.144	10.79
392.358	-11.48
392.573	-15.86
392.788	-8.16
393.002	-11.37
393.217	19.98
393.431	-8.42
393.646	14.45
393.86	9.33
394.075	-22.24
394.289	0.66
394.504	1.18
394.718	1.09
394.933	-18.38
395.147	20.67
395.361	6.13
395.576	4.71
395.79	-2.71
396.004	-15.2
396.218	-10.53
396.432	0.13
396.647	21.73
396.861	21.96
397.075	6.2
397.289	-3.81
397.503	2.46
397.717	7.26
397.931	-4.23
398.145	-4.74
398.359	5.55
398.573	-34.2
398.787	1.61
399.001	1.13
399.215	18.58
399.429	-5.74
399.643	5.28
399.857	-8.17
400.07	-10.29
400.284	2.68
400.498	-5.67
400.712	-4.13
400.925	2.26
401.139	6.89
401.353	-2.77
401.566	-0.46
401.78	-0.24
401.994	6.83
402.207	0.06
402.421	-0.2
402.634	-4.34
402.848	5.06
403.061	-3.32
403.275	0.05
403.488	6.77
403.702	-1.34
403.915	13.33
404.128	2.74
404.342	-7.51
404.555	-4.51
404.768	3.63
404.982	-4.64
405.195	-4.95
405.408	2.93
405.621	-1.57
405.835	6.97
406.048	-1.87
406.261	-0.49
406.474	7.36
406.687	-7.61
406.9	-1.57
407.113	0.2
407.326	4.91
407.539	-0.27
407.752	5.46
407.965	5.35
408.178	2.85
408.391	3.18
408.604	0.17
408.817	-1.58
409.029	0.78
409.242	1.13
409.455	-2.32
409.668	-2.04
409.881	0.96
410.093	-2.82
410.306	1.52
410.519	-2.68
410.731	-2.3
410.944	-2.38
411.157	1.01
411.369	-2.06
411.582	3.46
411.794	-1.35
412.007	3.04
412.219	1.82
412.432	1.7
412.644	6.17
412.857	-0.57
413.069	2.13
413.281	3.67
413.494	2.64
413.706	3.87
413.918	2.37
414.131	3.51
414.343	0.64
414.555	0.64
414.767	1.06
414.979	4.34
415.192	-0.65
415.404	-1.01
415.616	-1.08
415.828	0.27
416.04	-0.64
416.252	2.97
416.464	-2.78
416.676	2.35
416.888	3.03
417.1	-1.01
417.312	2.78
417.524	2.7
417.736	-2.13
417.948	0.33
418.159	-1.33
418.371	0.54
418.583	-0.06
418.795	1.96
419.007	1.28
419.218	0.02
419.43	3.3
419.642	-0.28
419.853	-0.05
420.065	2.94
420.276	3.67
420.488	2.31
420.7	0.28
420.911	3.79
421.123	1.69
421.334	-0.05
421.546	2.28
421.757	0.75
421.969	1.87
422.18	3.47
422.391	0.59
422.603	-0.24
422.814	2.09
423.025	1.55
423.237	1.69
423.448	3.04
423.659	3.7
423.87	-0.61
424.082	3.77
424.293	1.44
424.504	3.05
424.715	-0.92
424.926	0.42
425.137	0.63
425.348	2.42
425.559	2.71
425.77	2.91
425.981	1.81
426.192	2.45
426.403	3.24
426.614	-0.61
426.825	1.89
427.036	3.02
427.247	0.5
427.458	2.13
427.668	0.25
427.879	2.4
428.09	0.73
428.301	-0.04
428.511	1.17
428.722	1.53
428.933	-0.46
429.143	-0.52
429.354	2.08
429.565	1.57
429.775	1.2
429.986	0.76
430.196	1.68
430.407	-1.36
430.617	-0.65
430.828	0.31
431.038	1.8
431.249	2.09
431.459	1.41
431.669	3.26
431.88	2.2
432.09	1.69
432.3	1.55
432.511	1.07
432.721	2.01
432.931	2.27
433.141	-0.93
433.351	-1.35
433.562	1.85
433.772	2.18
433.982	0.99
434.192	1.74
434.402	2.34
434.612	2.31
434.822	0.07
435.032	0.77
435.242	1.57
435.452	-0.33
435.662	1.45
435.872	2.08
436.082	2.66
436.292	2.94
436.502	3.07
436.711	0.82
436.921	3.07
437.131	1.46
437.341	-0.18
437.551	2.51
437.76	3.17
437.97	0.38
438.18	0.27
438.389	0.94
438.599	1.33
438.808	-0.41
439.018	2.78
439.228	2.89
439.437	0.5
439.647	1.26
439.856	1.69
440.066	1.44
440.275	2.89
440.484	3.63
440.694	0.61
440.903	3.17
441.113	2.62
441.322	3.91
441.531	2.95
441.741	2.83
441.95	2.25
442.159	2.38
442.368	2.17
442.577	2.59
442.787	3.3
442.996	2.8
443.205	0.21
443.414	2.69
443.623	4.62
443.832	2.27
444.041	4.96
444.25	4.14
444.459	2.98
444.668	4
444.877	1.94
445.086	2.5
445.295	5.23
445.504	2.82
445.713	5.52
445.922	2.77
446.13	2.25
446.339	1.09
446.548	0.93
446.757	2.72
446.965	2.49
447.174	1.2
447.383	4.34
447.591	-0.12
447.8	4.35
448.009	1.56
448.217	4.8
448.426	1.14
448.634	5.72
448.843	3.11
449.051	5.03
449.26	3.77
449.468	6.21
449.677	5.23
449.885	5.15
450.093	2.64
450.302	3.34
450.51	4.28
450.719	0.57
450.927	3.06
451.135	1.68
451.343	3.64
451.552	5.47
451.76	4.89
451.968	4.2
452.176	4.36
452.384	0.83
452.592	5.04
452.8	2.85
453.009	5.62
453.217	5.41
453.425	2.43
453.633	7
453.841	5.01
454.049	3.85
454.257	4.55
454.464	8.47
454.672	5.37
454.88	4.19
455.088	3.1
455.296	5.97
455.504	8.87
455.711	7.39
455.919	7.07
456.127	7.06
456.335	7.34
456.542	5.92
456.75	6.75
456.958	7.07
457.165	5.68
457.373	7.56
457.581	8.01
457.788	3.92
457.996	7.26
458.203	7.39
458.411	8.35
458.618	7.88
458.826	9.85
459.033	10.95
459.24	9.13
459.448	10.1
459.655	8.89
459.863	10
460.07	9.78
460.277	11.34
460.484	11.48
460.692	13.26
460.899	8.34
461.106	8.11
461.313	11.99
461.52	8.71
461.728	10.98
461.935	9.98
462.142	10.63
462.349	13.49
462.556	10.91
462.763	11.28
462.97	11.49
463.177	12.98
463.384	11.2
463.591	14.73
463.798	13.28
464.005	12.81
464.212	13.56
464.418	16.33
464.625	13.93
464.832	15.5
465.039	13.22
465.246	15.3
465.452	16.03
465.659	16.85
465.866	15.3
466.072	16.44
466.279	14.05
466.486	15.7
466.692	17.09
466.899	17.18
467.105	14.9
467.312	15.3
467.519	15.17
467.725	14.67
467.931	14.04
468.138	13.25
468.344	17.86
468.551	14.73
468.757	17.28
468.964	17.81
469.17	16.44
469.376	13.82
469.583	16.86
469.789	17.27
469.995	16.54
470.201	18.34
470.408	15.99
470.614	15.95
470.82	13.95
471.026	12.59
471.232	13.98
471.438	13.89
471.644	16.36
471.85	15.07
472.056	15.72
472.262	14.81
472.468	14.84
472.674	14
472.88	15.77
473.086	11.26
473.292	14.93
473.498	13.11
473.704	13.42
473.91	13.43
474.116	16.03
474.321	13
474.527	11.02
474.733	13.02
474.939	10.93
475.144	11.65
475.35	8.66
475.556	9.98
475.761	11.08
475.967	11.92
476.173	10
476.378	12.27
476.584	11.52
476.789	10.09
476.995	11.53
477.2	9.5
477.406	10.95
477.611	8.95
477.817	8.78
478.022	8.66
478.227	9
478.433	10.41
478.638	8.37
478.843	8.41
479.049	8.96
479.254	8.17
479.459	8.67
479.664	8.27
479.87	9.39
480.075	8.89
480.28	8.15
480.485	7.97
480.69	8.64
480.895	6.4
481.1	7.61
481.306	6.95
481.511	6.08
481.716	6.72
481.921	6.96
482.126	6.4
482.33	6.16
482.535	5.32
482.74	5.88
482.945	6.92
483.15	6.27
483.355	6.01
483.56	5.9
483.765	5.08
483.969	4.41
484.174	6.16
484.379	4.65
484.583	4.63
484.788	4.05
484.993	4.44
485.197	5.45
485.402	4.34
485.607	5.97
485.811	4.18
486.016	5.35
486.22	6.61
486.425	4.35
486.629	4.93
486.834	4.44
487.038	5.9
487.243	4.42
487.447	3.51
487.652	5.42
487.856	4.3
488.06	4.28
488.265	4.48
488.469	3.99
488.673	2.47
488.877	3.45
489.082	3.86
489.286	3.64
489.49	4.35
489.694	3.23
489.898	4.58
490.102	3.31
490.307	3.18
490.511	3.75
490.715	3.69
490.919	2.91
491.123	3.42
491.327	4.21
491.531	2.56
491.735	4.1
491.939	1.88
492.143	2.66
492.346	2.96
492.55	2.66
492.754	3.23
492.958	3.28
493.162	2.77
493.366	2.96
493.569	3.43
493.773	2.28
493.977	2.73
494.18	2.99
494.384	2.06
494.588	3.81
494.791	1.6
494.995	2.59
495.199	2.58
495.402	3.17
495.606	3.15
495.809	3.6
496.013	2.26
496.216	2.39
496.42	0.77
496.623	1.1
496.827	2.4
497.03	2.6
497.233	2.79
497.437	2.23
497.64	1.9
497.843	2.55
498.047	2.53
498.25	3.34
498.453	2.47
498.656	1.85
498.86	2.2
499.063	2.75
499.266	2.05
499.469	1.75
499.672	2.25
499.875	1.63
500.078	1.33
500.281	1.78
500.484	0.89
500.687	1.49
500.89	2.38
501.093	2.39
501.296	3
501.499	1.22
501.702	2.97
501.905	2.65
502.108	3.38
502.311	2.36
502.514	1.36
502.716	2.56
502.919	2.79
503.122	2.11
503.325	2.61
503.527	1.93
503.73	1.84
503.933	1.26
504.135	1.87
504.338	2.42
504.541	1.92
504.743	2.84
504.946	2.2
505.148	1.65
505.351	1.32
505.553	2.17
505.756	2.49
505.958	2.21
506.161	2.93
506.363	2.1
506.565	2.09
506.768	1.07
506.97	1.56
507.172	0.84
507.375	1.51
507.577	1.38
507.779	2.29
507.982	1.73
508.184	0.92
508.386	1.8
508.588	0.89
508.79	1.42
508.993	2.33
509.195	1.68
509.397	2.43
509.599	1.03
509.801	0.57
510.003	2.19
510.205	1.84
510.407	1.8
510.609	1.77
510.811	1.68
511.013	1.54
511.215	1.38
511.417	0.79
511.618	1.21
511.82	1.97
512.022	1.58
512.224	1.31
512.426	1.1
512.627	1.62
512.829	1.42
513.031	1.07
513.233	1.8
513.434	1.33
513.636	1.05
513.838	2.04
514.039	1.16
514.241	1.43
514.442	1.63
514.644	1.56
514.845	1.07
515.047	1.75
515.248	0.97
515.45	1.07
515.651	1.54
515.853	1.33
516.054	1.24
516.256	0.77
516.457	2.18
516.658	1.75
516.86	1.21
517.061	1.46
517.262	1.33
517.463	1.75
517.665	1.57
517.866	1.22
518.067	1.38
518.268	1.5
518.469	0.91
518.67	0.94
518.872	1.07
519.073	0.95
519.274	1.7
519.475	1.49
519.676	0.74
519.877	1.23
520.078	1.85
520.279	1.49
520.48	1.14
520.681	1.21
520.881	1.34
521.082	1.77
521.283	1.47
521.484	1.21
521.685	1.54
521.886	1.45
522.086	1.37
522.287	1.31
522.488	1.94
522.689	1.61
522.889	1.57
523.09	0.89
523.291	1.58
523.491	1.69
523.692	1.25
523.892	0.94
524.093	1.08
524.294	1.02
524.494	1.23
524.695	1.68
524.895	1.28
525.096	1.45
525.296	1.39
525.496	1.65
525.697	1.77
525.897	1.44
526.098	1.12
526.298	1.76
526.498	1.61
526.699	1.08
526.899	1.46
527.099	1.42
527.299	1.45
527.499	1.12
527.7	1.59
527.9	1.28
528.1	1.68
528.3	1.7
528.5	1.38
528.7	1.1
528.9	1.28
529.1	1.55
529.3	1.41
529.5	1.71
529.7	1.46
529.9	1.47
530.1	0.87
530.3	1.22
530.5	1.72
530.7	1.94
530.9	1.72
531.1	1.39
531.3	1.51
531.499	1.22
531.699	1.24
531.899	1.29
532.099	1.51
532.298	1.1
532.498	1.59
532.698	1.4
532.897	1.42
533.097	1.19
533.297	1.41
533.496	1.57
533.696	1.45
533.895	1.46
534.095	1.31
534.294	1.2
534.494	0.9
534.693	1.55
534.893	1.76
535.092	1.42
535.292	1.41
535.491	1.34
535.69	1.03
535.89	1.23
536.089	1.47
536.288	1.62
536.488	0.97
536.687	1.57
536.886	1.12
537.085	1.72
537.285	1.22
537.484	1.2
537.683	1.65
537.882	1.37
538.081	1.56
538.28	1.53
538.479	1.14
538.678	1.34
538.877	1.53
539.076	1.32
539.275	1.17
539.474	1.47
539.673	1.28
539.872	1.03
540.071	1.61
540.27	1.54
540.469	1.77
540.668	1.78
540.867	1.55
541.065	1.41
541.264	1.43
541.463	1.58
541.662	1.33
541.861	1.74
542.059	1.38
542.258	1.32
542.457	1.92
542.655	0.91
542.854	1.38
543.052	1.36
543.251	1.39
543.45	1.69
543.648	1.45
543.847	1.72
544.045	1.3
544.244	1.43
544.442	1.74
544.641	1.5
544.839	1.33
545.037	1.8
545.236	1.7
545.434	1.67
545.632	1.66
545.831	1.71
546.029	1.41
546.227	1.34
546.426	1.23
546.624	1.54
546.822	1.6
547.02	1.14
547.218	1.51
547.417	1.63
547.615	1.38
547.813	1.6
548.011	1.6
548.209	1.63
548.407	1.9
548.605	1.91
548.803	1.45
549.001	1.64
549.199	1.5
549.397	1.75
549.595	1.61
549.793	1.86
549.991	1.74
550.189	1.8
550.387	1.74
550.584	1.73
550.782	1.56
550.98	1.58
551.178	1.86
551.376	1.62
551.573	1.48
551.771	1.77
551.969	1.94
552.166	1.63
552.364	1.61
552.562	1.62
552.759	1.71
552.957	1.69
553.154	1.66
553.352	1.63
553.55	1.74
553.747	1.55
553.945	1.68
554.142	1.71
554.339	1.68
554.537	1.59
554.734	1.8
554.932	1.67
555.129	1.79
555.326	1.63
555.524	2.06
555.721	1.74
555.918	2.01
556.116	1.39
556.313	1.85
556.51	1.85
556.707	1.75
556.904	1.46
557.102	1.61
557.299	1.85
557.496	2
557.693	1.87
557.89	1.79
558.087	1.9
558.284	1.73
558.481	2.07
558.678	1.84
558.875	2.09
559.072	1.97
559.269	2.16
559.466	1.89
559.663	1.97
559.86	2.05
560.057	2
560.254	1.77
560.45	1.87
560.647	1.76
560.844	1.97
561.041	2.29
561.237	1.87
561.434	1.9
561.631	2.07
561.828	2
562.024	2.01
562.221	1.79
562.418	2.04
562.614	2.09
562.811	2.19
563.007	1.83
563.204	2.22
563.4	2.29
563.597	2.33
563.793	2.13
563.99	2.01
564.186	2.05
564.383	2.44
564.579	2.26
564.775	2.25
564.972	2.42
565.168	2.04
565.365	2.26
565.561	2.42
565.757	2.24
565.953	1.99
566.15	2.25
566.346	2.37
566.542	2.47
566.738	2.52
566.934	2.33
567.131	2.29
567.327	2.68
567.523	2.43
567.719	2.08
567.915	2.8
568.111	2.58
568.307	2.66
568.503	2.65
568.699	2.36
568.895	2.42
569.091	2.59
569.287	2.52
569.483	2.43
569.679	2.69
569.875	2.57
570.07	2.46
570.266	2.9
570.462	2.66
570.658	2.68
570.854	2.8
571.049	2.6
571.245	2.49
571.441	2.72
571.636	2.7
571.832	2.81
572.028	2.78
572.223	2.72
572.419	2.57
572.615	2.71
572.81	2.58
573.006	2.82
573.201	2.73
573.397	2.82
573.592	2.54
573.788	2.8
573.983	2.92
574.179	3
574.374	2.96
574.569	3.08
574.765	2.93
574.96	2.75
575.156	2.87
575.351	2.86
575.546	3.14
575.741	2.82
575.937	2.85
576.132	3.17
576.327	3.29
576.522	3.29
576.718	3.18
576.913	3.16
577.108	2.89
577.303	3.38
577.498	3.16
577.693	3.24
577.888	3.26
578.083	3.07
578.278	3.14
578.473	3.32
578.668	3.41
578.863	3.29
579.058	3
579.253	3.27
579.448	3.36
579.643	3.24
579.838	3.49
580.033	3.27
580.227	3.34
580.422	3.52
580.617	3.59
580.812	3.9
581.006	3.21
581.201	3.78
581.396	3.35
581.591	3.47
581.785	3.84
581.98	3.95
582.175	3.72
582.369	3.8
582.564	3.86
582.758	3.93
582.953	3.69
583.147	3.9
583.342	4.11
583.536	3.93
583.731	3.94
583.925	4.11
584.12	4.12
584.314	3.86
584.509	3.86
584.703	3.99
584.897	3.88
585.092	4.19
585.286	4.32
585.48	3.88
585.674	4.23
585.869	4.19
586.063	4.2
586.257	4.19
586.451	3.9
586.646	4.3
586.84	4.2
587.034	3.99
587.228	4.02
587.422	4.55
587.616	4.38
587.81	4.38
588.004	4.52
588.198	4.25
588.392	4.54
588.586	4.88
588.78	4.88
588.974	4.54
589.168	4.89
589.362	4.78
589.556	4.84
589.75	4.85
589.944	5.14
590.137	5.31
590.331	5.33
590.525	5.08
590.719	4.97
590.913	4.95
591.106	5.13
591.3	5.15
591.494	5.51
591.687	5.4
591.881	5.14
592.075	5.26
592.268	5.41
592.462	5.16
592.655	5.11
592.849	5.12
593.043	5.48
593.236	5.32
593.43	5.03
593.623	5.19
593.817	5.31
594.01	5.48
594.203	5.68
594.397	5.52
594.59	5.48
594.784	5.48
594.977	5.71
595.17	5.74
595.364	5.84
595.557	5.76
595.75	5.71
595.943	5.75
596.137	6.23
596.33	5.95
596.523	6.36
596.716	6.35
596.909	6.23
597.102	6.48
597.296	6.51
597.489	6.35
597.682	6.36
597.875	6.28
598.068	6.2
598.261	6.31
598.454	6.36
598.647	6.33
598.84	6.07
599.033	6.63
599.226	6.26
599.419	6.42
599.611	6.48
599.804	6.62
599.997	6.75
600.19	6.98
600.383	6.87
600.576	6.87
600.768	6.79
600.961	6.58
601.154	6.82
601.347	7.48
601.539	7.29
601.732	7.46
601.925	7.46
602.117	7.86
602.31	7.88
602.502	7.44
602.695	7.38
602.888	7.64
603.08	7.43
603.273	7.66
603.465	7.96
603.658	8.21
603.85	7.62
604.043	7.56
604.235	7.64
604.427	7.49
604.62	7.6
604.812	7.95
605.004	7.92
605.197	7.92
605.389	7.75
605.581	7.77
605.774	8.11
605.966	8.22
606.158	8.21
606.35	8.53
606.543	8.25
606.735	8.87
606.927	8.54
607.119	8.69
607.311	8.93
607.503	9.08
607.695	9
607.887	8.93
608.079	8.93
608.271	9.07
608.463	8.87
608.655	9.19
608.847	9.38
609.039	9.24
609.231	9.59
609.423	8.85
609.615	9.72
609.807	9.5
609.999	10.11
610.191	9.69
610.382	9.92
610.574	9.8
610.766	9.95
610.958	10.08
611.15	9.89
611.341	9.97
611.533	10.19
611.725	10.08
611.916	10.38
612.108	10.43
612.3	10.24
612.491	10.21
612.683	10.42
612.874	10.57
613.066	10.9
613.257	10.84
613.449	10.86
613.64	10.43
613.832	10.83
614.023	10.91
614.215	10.95
614.406	10.79
614.598	11.04
614.789	11.62
614.98	11.36
615.172	11.27
615.363	11.49
615.554	11.11
615.746	11.02
615.937	11.36
616.128	11.07
616.319	11.75
616.511	11.47
616.702	11.71
616.893	11.92
617.084	11.7
617.275	12.25
617.466	12.01
617.658	12.18
617.849	12.05
618.04	12.06
618.231	12.2
618.422	12.71
618.613	11.99
618.804	12.2
618.995	12.75
619.186	12.44
619.377	12.8
619.568	12.67
619.758	13.05
619.949	12.84
620.14	12.78
620.331	12.89
620.522	12.73
620.713	12.76
620.903	12.82
621.094	13.17
621.285	13.09
621.476	13.38
621.666	13.5
621.857	13.27
622.048	13.7
622.238	13.66
622.429	14.25
622.62	14.35
622.81	14.78
623.001	14.75
623.191	14.65
623.382	14.15
623.572	14
623.763	14.18
623.953	14.25
624.144	13.79
624.334	14.35
624.525	14.52
624.715	15.02
624.905	15.2
625.096	14.89
625.286	14.84
625.477	14.94
625.667	15.04
625.857	14.86
626.047	14.88
626.238	14.76
626.428	14.95
626.618	14.76
626.808	14.74
626.999	14.8
627.189	15.55
627.379	15.11
627.569	15.19
627.759	15.77
627.949	15.65
628.139	15.32
628.329	15.62
628.519	15.97
628.709	15.35
628.899	15.59
629.089	14.92
629.279	15.59
629.469	15.41
629.659	15.42
629.849	15.8
630.039	16.11
630.229	16.3
630.419	16.01
630.609	15.97
630.798	16.03
630.988	16.03
631.178	15.63
631.368	15.84
631.557	16.58
631.747	16.04
631.937	16.14
632.127	16.15
632.316	16.1
632.506	16.64
632.696	16.57
632.885	16.89
633.075	16.77
633.264	16.9
633.454	16.53
633.643	17
633.833	16.51
634.022	17.29
634.212	17.15
634.401	16.92
634.591	17.18
634.78	16.98
634.97	17.07
635.159	16.81
635.348	16.88
635.538	16.84
635.727	16.65
635.916	16.55
636.106	16.95
636.295	17.44
636.484	16.88
636.674	16.98
636.863	17.01
637.052	16.59
637.241	16.84
637.43	16.72
637.619	16.71
637.809	17.19
637.998	17.39
638.187	17.28
638.376	17.36
638.565	17.86
638.754	17.81
638.943	17.73
639.132	18.02
639.321	16.88
639.51	17
639.699	16.54
639.888	16.78
640.077	16.53
640.266	16.75
640.455	17.32
640.643	17
640.832	16.88
641.021	16.9
641.21	17
641.399	16.91
641.587	17.48
641.776	17.45
641.965	17.7
642.154	17.88
642.342	17.21
642.531	17.99
642.72	17.35
642.908	17.79
643.097	17.74
643.286	17.8
643.474	18.02
643.663	17.79
643.851	17.17
644.04	17.24
644.228	17.4
644.417	17.41
644.605	17.2
644.794	16.9
644.982	17.19
645.171	17.31
645.359	17.33
645.547	17.58
645.736	17.48
645.924	17.05
646.112	17.2
646.301	16.82
646.489	16.72
646.677	17.05
646.866	17.1
647.054	17.29
647.242	17.01
647.43	17.65
647.618	17.89
647.807	17.61
647.995	17.81
648.183	17.12
648.371	16.75
648.559	17.26
648.747	17.25
648.935	17.47
649.123	17.2
649.311	17.58
649.499	18.04
649.687	17.6
649.875	17.14
650.063	17.24
650.251	16.86
650.439	17.39
650.627	17.31
650.815	17.26
651.003	17.15
651.191	16.97
651.378	17.6
651.566	17.22
651.754	16.66
651.942	17.32
652.13	17.06
652.317	17.37
652.505	17.83
652.693	17.65
652.88	17.06
653.068	17.55
653.256	17.3
653.443	17.62
653.631	17.29
653.819	17.48
654.006	17.33
654.194	17.49
654.381	17.08
654.569	17.37
654.756	17.08
654.944	17.09
655.131	17.32
655.319	17.47
655.506	17.3
655.693	17.18
655.881	17.33
656.068	17.69
656.256	17.63
656.443	17.37
656.63	17.42
656.818	17.47
657.005	17.36
657.192	17.43
657.379	17.2
657.567	17.37
657.754	16.95
657.941	17.22
658.128	17.38
658.315	16.94
658.502	17.23
658.69	16.94
658.877	17.15
659.064	17.1
659.251	17.26
659.438	17.32
659.625	17.17
659.812	17.59
659.999	17.18
660.186	17.2
660.373	17.06
660.56	17.04
660.747	16.74
660.934	16.94
661.121	17.65
661.308	17.05
661.494	17.02
661.681	17.08
661.868	17.15
662.055	16.94
662.242	16.89
662.428	17.23
662.615	17.02
662.802	17.74
662.989	17.75
663.175	18.11
663.362	18.35
663.549	18.07
663.735	18.04
663.922	17.81
664.109	17.31
664.295	18.13
664.482	17.6
664.668	17.62
664.855	17.43
665.041	17.11
665.228	17.56
665.414	17.69
665.601	17.63
665.787	17.68
665.974	17.21
666.16	17.2
666.347	16.95
666.533	16.81
666.719	16.97
666.906	16.88
667.092	16.85
667.278	16.68
667.465	16.71
667.651	17.09
667.837	17.11
668.023	17.06
668.21	16.81
668.396	16.38
668.582	16.58
668.768	16.29
668.954	16.73
669.14	16.76
669.327	17.04
669.513	17.37
669.699	16.85
669.885	16.96
670.071	16.96
670.257	17.6
670.443	17.14
670.629	17.28
670.815	17.19
671.001	16.88
671.187	16.62
671.373	16.73
671.559	16.5
671.744	17.25
671.93	16.78
672.116	17.5
672.302	17.67
672.488	17.67
672.674	17.56
672.859	17.46
673.045	17.81
673.231	17.3
673.417	16.79
673.602	16.55
673.788	16.8
673.974	16.64
674.159	16.8
674.345	16.52
674.531	16.81
674.716	16.75
674.902	16.9
675.087	17
675.273	17.14
675.459	17.43
675.644	16.94
675.83	16.68
676.015	16.36
676.2	16.45
676.386	16.59
676.571	16.55
676.757	16.15
676.942	16.86
677.128	16.38
677.313	16.3
677.498	15.99
677.684	16.01
677.869	16.48
678.054	17.15
678.24	16.76
678.425	17.25
678.61	16.62
678.795	17.07
678.98	17.29
679.166	17.49
679.351	16.95
679.536	17.03
679.721	16.96
679.906	17.15
680.091	16.76
680.276	16.68
680.461	16.95
680.647	17.07
680.832	17.32
681.017	16.95
681.202	16.67
681.387	16.82
681.572	16.83
681.756	16.84
681.941	16.91
682.126	16.7
682.311	16.71
682.496	16.47
682.681	16.83
682.866	16.71
683.051	16.42
683.235	16.68
683.42	17.48
683.605	16.43
683.79	16.89
683.974	17.08
684.159	16.7
684.344	16.72
684.529	17.21
684.713	17.12
684.898	16.97
685.083	16.56
685.267	16.62
685.452	16.8
685.636	17.03
685.821	16.67
686.005	17.14
686.19	17.04
686.375	17.31
686.559	17.2
686.744	16.56
686.928	16.48
687.112	16.31
687.297	15.91
687.481	15.98
687.666	16.06
687.85	16.21
688.034	16.39
688.219	16.39
688.403	16.24
688.587	16.24
688.772	16.51
688.956	16.43
689.14	16.44
689.324	16.67
689.509	16.61
689.693	16.44
689.877	16.72
690.061	16.61
690.245	16.62
690.43	16.36
690.614	16.14
690.798	15.45
690.982	16
691.166	16.08
691.35	16.11
691.534	16.43
691.718	16.36
691.902	16.14
692.086	15.81
692.27	16.26
692.454	15.94
692.638	16.1
692.822	16.52
693.006	16.84
693.19	16.66
693.373	16.77
693.557	17.04
693.741	16.34
693.925	16.29
694.109	16.15
694.293	16.63
694.476	16.22
694.66	16.78
694.844	16.12
695.027	16.6
695.211	16.66
695.395	16.8
695.578	16.91
695.762	16.27
695.946	16.4
696.129	16.6
696.313	16.12
696.497	16.04
696.68	15.95
696.864	16.18
697.047	16.16
697.231	15.7
697.414	15.82
697.598	15.45
697.781	15.71
697.965	15.49
698.148	15.56
698.331	15.68
698.515	15.87
698.698	15.7
698.881	15.66
699.065	15.78
699.248	16.02
699.431	16.18
699.615	15.87
699.798	15.91
699.981	15.95
700.165	16.04
700.348	15.72
700.531	15.78
700.714	15.54
700.897	15.94
701.08	15.9
701.264	15.63
701.447	15.75
701.63	15.41
701.813	15.85
701.996	16.1
702.179	15.74
702.362	15.8
702.545	16.2
702.728	16.09
702.911	16.01
703.094	16.2
703.277	16.45
703.46	16.66
703.643	16.27
703.826	16.4
704.009	16.23
704.191	15.57
704.374	16.01
704.557	15.48
704.74	16.1
704.923	15.79
705.106	15.46
705.288	15.38
705.471	15.26
705.654	15.22
705.837	15.29
706.019	15.44
706.202	16.09
706.385	15.98
706.567	15.55
706.75	15.53
706.932	15.31
707.115	15.47
707.298	15.25
707.48	15.12
707.663	14.83
707.845	15.38
708.028	15.55
708.21	15.58
708.393	15.9
708.575	15.71
708.758	15.4
708.94	15.89
709.123	15.69
709.305	16.07
709.487	15.87
709.67	16.02
709.852	15.6
710.034	15.75
710.217	15.6
710.399	15.57
710.581	15.66
710.764	15.66
710.946	15.76
711.128	15.2
711.31	15.52
711.492	15.49
711.675	15.49
711.857	15.53
712.039	15.51
712.221	15.58
712.403	15.1
712.585	15.26
712.767	15.29
712.949	15.55
713.131	16.1
713.314	16.2
713.496	15.4
713.678	15.38
713.86	15.68
714.041	15.21
714.223	15.34
714.405	15.14
714.587	14.97
714.769	14.83
714.951	15.55
715.133	14.92
715.315	15.91
715.497	15.67
715.678	15.55
715.86	15.72
716.042	15.59
716.224	15.35
716.406	15.93
716.587	16.07
716.769	15.66
716.951	15.49
717.132	15.41
717.314	14.98
717.496	15.42
717.677	15.66
717.859	15.07
718.041	15.37
718.222	14.29
718.404	14.9
718.585	15.13
718.767	14.93
718.948	15.18
719.13	15.48
719.311	15.7
719.493	15.36
719.674	15.42
719.856	15.31
720.037	15.3
720.219	15.21
720.4	15.84
720.581	15.22
720.763	15.21
720.944	15.36
721.125	15.23
721.307	15.19
721.488	15.26
721.669	14.78
721.85	14.82
722.032	15.05
722.213	15.15
722.394	15.23
722.575	14.37
722.756	14.57
722.938	15.13
723.119	14.84
723.3	14.72
723.481	15.06
723.662	14.76
723.843	14.41
724.024	14.78
724.205	15.32
724.386	15.27
724.567	14.99
724.748	14.96
724.929	15.54
725.11	15.49
725.291	15.41
725.472	15.52
725.653	16.1
725.834	15.25
726.015	14.68
726.196	14.62
726.377	14.63
726.557	14.81
726.738	15.73
726.919	15.45
727.1	15.08
727.281	15.1
727.461	14.98
727.642	15.1
727.823	14.52
728.004	15.36
728.184	15.74
728.365	15.24
728.546	15.01
728.726	15.13
728.907	14.89
729.087	14.89
729.268	14.78
729.449	14.75
729.629	15.05
729.81	15.11
729.99	14.56
730.171	14.38
730.351	14.37
730.532	14.32
730.712	14.19
730.893	14.33
731.073	14.22
731.253	14.16
731.434	14.11
731.614	13.76
731.795	14.18
731.975	13.94
732.155	14.92
732.336	14.26
732.516	14.43
732.696	14.43
732.876	14.33
733.057	13.87
733.237	13.74
733.417	14.19
733.597	13.77
733.778	14.07
733.958	13.96
734.138	13.92
734.318	13.67
734.498	14.28
734.678	13.44
734.858	13.98
735.038	14.26
735.218	14.72
735.398	14.45
735.579	14.78
735.759	14.67
735.939	13.8
736.119	14.84
736.298	14.91
736.478	14.03
736.658	14.08
736.838	14.45
737.018	14.2
737.198	14.27
737.378	14.43
737.558	14.92
737.738	14.92
737.917	14.48
738.097	14.12
738.277	14.49
738.457	14.48
738.637	13.81
738.816	13.97
738.996	13.7
739.176	13.72
739.355	14.22
739.535	13.96
739.715	13.68
739.894	13.38
740.074	13.37
740.254	13.48
740.433	13.3
740.613	13.26
740.792	13.45
740.972	13.48
741.151	13.4
741.331	13.51
741.51	13.95
741.69	13.77
741.869	14.58
742.049	14.38
742.228	14.76
742.408	14.35
742.587	14.32
742.766	13.8
742.946	14.5
743.125	14.22
743.305	13.8
743.484	13.98
743.663	14.05
743.842	13.49
744.022	14.25
744.201	13.26
744.38	14.34
744.56	13.66
744.739	13.64
744.918	14.25
745.097	13.79
745.276	14.01
745.455	13.04
745.635	13.5
745.814	13.92
745.993	14.11
746.172	13.7
746.351	14.06
746.53	14.34
746.709	13.51
746.888	13.51
747.067	13.13
747.246	13.26
747.425	13.59
747.604	13.45
747.783	13.98
747.962	13.77
748.141	14.23
748.32	13.82
748.499	13.29
748.677	13.6
748.856	12.82
749.035	13.59
749.214	13.59
749.393	13.55
749.572	12.83
749.75	13.4
749.929	13.83
750.108	13.74
750.287	14.19
750.465	13.54
750.644	13.28
750.823	13.11
751.001	13.8
751.18	13.2
751.359	12.99
751.537	13.8
751.716	12.91
751.894	12.56
752.073	13.3
752.251	12.55
752.43	12.65
752.609	13.2
752.787	13.7
752.966	13.56
753.144	13.4
753.322	12.8
753.501	12.31
753.679	12.75
753.858	12.45
754.036	12.66
754.215	12.48
754.393	12.47
754.571	12.26
754.75	12.45
754.928	12.67
755.106	12.25
755.284	13.44
755.463	12.8
755.641	12.44
755.819	12.62
755.997	13.59
756.176	12.93
756.354	13.18
756.532	13.33
756.71	13.55
756.888	13.2
757.066	12.9
757.245	13.45
757.423	12.15
757.601	11.94
757.779	12.43
757.957	12.08
758.135	12.7
758.313	12.85
758.491	13.22
758.669	12.38
758.847	12.66
759.025	12.82
759.203	12.37
759.381	13.22
759.559	12.59
759.737	12.8
759.915	12.12
760.092	12.67
760.27	12.05
760.448	11.78
760.626	12.17
760.804	11.63
760.981	11.99
761.159	12.64
761.337	12.42
761.515	12.65
761.692	12.42
761.87	12.96
762.048	11.39
762.226	12.24
762.403	11.55
762.581	12.96
762.759	12.54
762.936	12.45
763.114	12.55
763.291	12.56
763.469	12.33
763.647	12.27
763.824	12.3
764.002	12.82
764.179	12.54
764.357	12.26
764.534	12.09
764.712	12.84
764.889	12.34
765.066	11.52
765.244	11.48
765.421	11.51
765.599	12.57
765.776	11.81
765.953	11.41
766.131	12.15
766.308	11.39
766.485	12.6
766.663	11.93
766.84	11.7
767.017	12.1
767.194	11.93
767.372	11.12
767.549	11.72
767.726	12.98
767.903	11.72
768.081	11.66
768.258	12.13
768.435	12.32
768.612	12.64
768.789	12.8
768.966	11.52
769.143	12.08
769.32	12
769.497	11.95
769.674	11.95
769.851	11.17
770.028	11.8
770.205	12.54
770.382	11.76
770.559	11.53
770.736	12.47
770.913	12.5
771.09	11.64
771.267	10.64
771.444	11.63
771.621	11.44
771.798	12.16
771.975	12.33
772.151	12.71
772.328	12.64
772.505	11.77
772.682	12.04
772.859	12.11
773.035	11.92
773.212	11.55
773.389	11.15
773.565	11.37
773.742	11.48
773.919	11.72
774.096	10.25
774.272	11.34
774.449	11.06
774.625	10.54
774.802	11.05
774.979	12.3
775.155	11.1
775.332	10.75
775.508	11.69
775.685	11.09
775.861	11.79
776.038	11.13
776.214	11.28
776.391	11.29
776.567	10.68
776.744	11.86
776.92	11.5
777.096	10.43
777.273	11.1
777.449	11.4
777.626	10.65
777.802	10.87
777.978	10.96
778.155	11.58
778.331	10.86
778.507	11.39
778.683	9.82
778.86	12.45
779.036	11.5
779.212	11.28
779.388	10.33
779.565	9.99
779.741	12.21
779.917	11
780.093	10.07
780.269	9.63
780.445	9.98
780.621	10.68
780.797	9.79
780.974	9.5
781.15	9.68
781.326	11.1
781.502	10.52
781.678	11.3
781.854	9.71
782.03	9.1
782.206	10.18
782.382	10.78
782.558	12.34
782.733	10.84
782.909	10.06
783.085	9.8
783.261	11.44
783.437	10.27
783.613	9.85
783.789	10.35
783.965	11.32
784.14	9.88
784.316	9.33
784.492	11
784.668	9.7
784.843	8.61
785.019	10.96
785.195	9.8
785.371	11.4
785.546	9.42
785.722	9
785.898	9.85
786.073	10.2
786.249	9.87
786.424	11.05
786.6	9.7
786.776	10.53
786.951	8.56
787.127	11.59
787.302	10.69
787.478	9.8
787.653	10.4
787.829	9.78
788.004	9.45
788.18	10.42
788.355	9.21
788.531	10.2
788.706	11.63
788.881	10.53
789.057	11.42
789.232	9.25
789.408	11.26
789.583	9.6
789.758	9.59
789.934	9.12
790.109	9.86
790.284	10.23
790.459	9.92
790.635	11.2
790.81	10.24
790.985	9.69
791.16	8.77
791.336	9.98
791.511	10.53
791.686	11.56
791.861	10.01
792.036	11.38
792.211	9.55
792.387	8.26
792.562	8.72
792.737	9.83
792.912	9.22
793.087	8.99
793.262	8.19
793.437	9.32
793.612	9.75
793.787	9.56
793.962	10.39
794.137	12.3
794.312	8.51
794.487	9.72
794.662	9.25
794.837	8.86
795.011	9.88
795.186	9.67
795.361	9.36
795.536	8.52
795.711	7.14
795.886	10.02
796.06	7.67
796.235	7.94
796.41	5.92
796.585	9.63
796.76	8.72
796.934	10.47
797.109	9.25
797.284	9.36
797.458	9.6
797.633	12.57
797.808	7.45
797.982	12.44
798.157	9.71
798.332	9.85
798.506	11.61
798.681	8.68
798.855	10.34
799.03	10.2
799.204	11.89
799.379	8.35
799.553	8.56
799.728	4.65
799.902	7.16
800.077	8.92
800.251	10.98
800.426	9.04
800.6	9.12
800.775	11.37
800.949	8.99
801.123	8.21
801.298	9.1
801.472	10.69
801.647	7.27
801.821	5.77
801.995	7.41
802.169	9.4
802.344	9.48
802.518	9.03
802.692	7.97
802.867	10.36
803.041	10.31
803.215	9.37
803.389	9.91
803.563	5.84
803.737	8.77
803.912	9.58
804.086	9.85
804.26	6.91
804.434	7.78
804.608	8.06
804.782	11.52
804.956	10.94
805.13	10.39
805.304	6.78
805.478	10.76
805.652	10.38
805.826	12.35
806	9.57
806.174	11.1
806.348	9.68
806.522	9.14
806.696	8.74
806.87	7.29
807.044	7.16
807.218	13.44
807.392	12.09
807.566	7.19
807.739	8.49
807.913	9.47
808.087	9.26
808.261	8.15
808.435	8.07
808.608	5.07
808.782	5.85
808.956	5.1
809.13	3.94
809.303	8.76
809.477	8.4
809.651	11.39
809.824	5.29
809.998	8.17
810.172	12.26
810.345	9.1
810.519	6.78
810.692	3.49
810.866	6.72
811.04	6.39
811.213	9.83
811.387	6.67
811.56	8
811.734	9.54
811.907	6.62
812.081	9.62
812.254	9.11
812.428	8.11
812.601	7.9
812.774	8.67
812.948	4.63
813.121	11.27
813.295	6.66
813.468	7.24
813.641	5.58
813.815	9.9
813.988	9.65
814.161	3.29
814.335	11.77
814.508	5.93
814.681	6.98
814.854	4.3
815.028	7.52
815.201	9.62
815.374	11.69
815.547	8.81
815.72	7.27
815.894	9.44
816.067	8.16
816.24	10
816.413	12.3
816.586	11.44
816.759	10.4
816.932	7.14
817.105	9.97
817.278	8.88
817.452	5.99
817.625	9.62
817.798	7.27
817.971	8.17
818.144	11.8
818.317	10.92
818.49	3.71
818.662	6.58
818.835	10.19
819.008	8.29
819.181	7.57
819.354	10.06
819.527	10.09
819.7	8.13
819.873	8.19
820.046	10.65
820.218	7.27
820.391	10.32
820.564	7.19
820.737	7.68
820.909	8.57
821.082	7.75
821.255	9.35
821.428	10.29
821.6	6.23
821.773	7.66
821.946	7.25
822.118	11.33
822.291	10.94
822.464	5.76
822.636	10.41
822.809	6.67
822.982	10.66
823.154	13.16
823.327	7.32
823.499	6.75
823.672	12.42
823.844	3.34
824.017	11.16
824.189	8.25
824.362	7.45
824.534	11.04
824.707	8.04
824.879	6
825.052	6.85
825.224	8.95
825.396	7.72
825.569	8.43
825.741	6.3
825.914	9.36
826.086	10.42
826.258	7.31
826.431	10.87
826.603	8.35
826.775	8.56
826.947	4.76
827.12	11.94
827.292	11.23
827.464	5.84
827.636	9.71
827.809	8.82
827.981	9.77
828.153	6.41
828.325	8.53
828.497	9.41
828.669	9.63
828.842	5.36
829.014	4.18
829.186	7.42
829.358	11.13
829.53	10.63
829.702	8.76
829.874	13.66
830.046	7.51
830.218	10.26
830.39	6.38
830.562	10.47
830.734	11.04
830.906	9.8
831.078	5.6
831.25	9.13
831.422	5.9
831.594	7.06
831.766	9.42
831.937	5.08
832.109	11.43
832.281	5.44
832.453	7.73
832.625	5.24
832.797	9.45
832.968	6
833.14	11.13
833.312	8.21
833.484	8.83
833.655	9.72
833.827	4.53
833.999	10.2
834.171	10.37
834.342	9.16
834.514	9.96
834.686	4.99
834.857	8.21
835.029	5.55
835.2	12.35
835.372	8.94
835.544	8.4
835.715	4.22
835.887	8.92
836.058	4.81
836.23	10.97
836.401	8.05
836.573	11.34
836.744	5.27
836.916	5.74
837.087	5.04
837.259	8.12
837.43	3.51
837.602	6.62
837.773	7.09
837.945	4.56
838.116	7.35
838.287	6.13
838.459	9.68
838.63	7.68
838.801	13.22
838.973	6.56
839.144	10.22
839.315	10.94
839.487	6.42
839.658	9.39
839.829	11.14
840	6.49
840.172	9.52
840.343	7.61
840.514	10.83
840.685	12.28
840.856	6.26
841.027	9.82
841.199	8.21
841.37	4.14
841.541	9.85
841.712	10.49
841.883	12.17
842.054	10.51
842.225	8.8
842.396	11.45
842.567	6.43
842.738	11.36
842.909	12.78
843.08	6.62
843.251	5.85
843.422	7.02
843.593	7.27
843.764	7.25
843.935	13.4
844.106	6.56
844.277	10.56
844.448	8.62
844.619	6.07
844.79	9.86
844.96	8.73
845.131	6.34
845.302	6.24
845.473	6.72
845.644	3.7
845.814	2.4
845.985	7.17
846.156	8
846.327	1.83
846.497	6.11
846.668	5.45
846.839	5.78
847.01	4.04
847.18	6.14
847.351	12
847.522	8.75
847.692	6.92
847.863	8.9
848.033	8.86
848.204	6.91
848.375	7.65
848.545	13.14
848.716	14.02
848.886	8.11
849.057	13.49
849.227	3.84
849.398	0.52
849.568	8.43
849.739	5.84
849.909	10.46
850.08	9.5
850.25	8.68
850.421	5.87
850.591	6.41
850.761	6.68
850.932	9.34
851.102	0.29
851.272	7.5
851.443	10.16
851.613	3.78
851.783	7.11
851.954	4.1
852.124	12.41
852.294	7.31
852.465	10.93
852.635	5.48
852.805	5.03
852.975	5.86
853.145	5.14
853.316	9.9
853.486	10.31
853.656	12.05
853.826	8.72
853.996	11.83
854.166	6
854.337	6.84
854.507	10.81
854.677	6.2
854.847	12.86
855.017	6.68
855.187	13.41
855.357	2.63
855.527	10.76
855.697	2.84
855.867	6.08
856.037	6.93
856.207	4.82
856.377	5.54
856.547	9.68
856.717	9.28
856.887	9.03
857.057	15.84
857.227	11.92
857.397	14.21
857.566	5.36
857.736	4.68
857.906	2.4
858.076	3.34
858.246	6.79
858.416	6.08
858.585	6.75
858.755	12.55
858.925	7.57
859.095	7.97
859.264	12.3
859.434	5.89
859.604	7.41
859.774	9.66
859.943	9.98
860.113	3.74
860.283	7.43
860.452	4.97
860.622	3.65
860.791	9.19
860.961	6.15
861.131	3.89
861.3	6.83
861.47	-3.71
861.639	10.8
861.809	15.67
861.978	5.2
862.148	10.17
862.318	9.06
862.487	1.83
862.657	5.7
862.826	10.28
862.995	1.03
863.165	6.88
863.334	5.58
863.504	9.98
863.673	2.57
863.843	3.08
864.012	15.77
864.181	9.81
864.351	4.98
864.52	0.45
864.689	3.58
864.859	-0.16
865.028	11.51
865.197	5.05
865.366	4.82
865.536	7
865.705	8.74
865.874	5.52
866.043	8.94
866.213	3.05
866.382	13.08
866.551	3.15
866.72	17.87
866.889	10.02
867.059	-7.54
867.228	5.53
867.397	-1.1
867.566	-6.53
867.735	8.58
867.904	10.11
868.073	8.68
868.242	18.23
868.411	4.1
868.58	4.28
868.749	11.08
868.918	2.69
869.087	11.3
869.256	3.68
869.425	11.38
869.594	13.29
869.763	10.72
869.932	12.75
870.101	-2.49
870.27	-3.66
870.439	-2.59
870.608	0.7
870.777	-3.84
870.945	5.67
871.114	8.49
871.283	4.26
871.452	9.87
871.621	19.95
871.789	8.32
871.958	10.49
872.127	7.5
872.296	9.42
872.464	10.88
872.633	14.47
872.802	2.24
872.971	12.51
873.139	0.31
873.308	15.34
873.477	8.86
873.645	6.42
873.814	0.56
873.983	-6.06
874.151	7.53
874.32	11.02
874.488	5.26
874.657	1.8
874.826	15.27
874.994	12.65
875.163	4.93
875.331	11.37
875.5	8.03
875.668	8.84
875.837	12.73
876.005	7.28
876.174	19.61
876.342	9.93
876.51	14.74
876.679	10.4
876.847	10.68
877.016	-2.37
877.184	-4.18
877.352	4.27
877.521	15.51
877.689	12.39
877.857	12.82
878.026	7.56
878.194	17.34
878.362	5.72
878.531	-7.09
878.699	10.2
878.867	-5.25
879.036	7.37
879.204	-0.5
879.372	1.44
879.54	-2.37
879.708	19.37
879.877	13.25
880.045	13.91
880.213	3.87
880.381	16.06
880.549	5.75
880.717	6.28
880.885	17.26
881.054	-7.62
881.222	11.37
881.39	2.82
881.558	10.41
881.726	-0.89
881.894	3
882.062	2.81
882.23	8.13
882.398	-1.21
882.566	0.37
882.734	3.87
882.902	8.84
883.07	-1.93
883.238	-3.24
883.406	-9.83
883.574	-9.81
883.741	6.63
883.909	17.53
884.077	2.72
884.245	14.72
884.413	-1.95
884.581	11.69
884.749	3.37
884.916	9.73
885.084	7.24
885.252	2.53
885.42	-1.99
885.587	16.14
885.755	9.38
885.923	2.24
886.091	20.87
886.258	16.18
886.426	-0.59
886.594	-8.33
886.761	-9.74
886.929	8.87
887.097	5.86
887.264	-2.27
887.432	9.62
887.6	-3.84
887.767	7.43
887.935	-6.05
888.102	10.16
888.27	5.74
888.438	-0.28
888.605	-2.04
888.773	13.33
888.94	8.27
889.108	-13.06
889.275	16.9
889.443	20.79
889.61	4.16
889.778	8.44
889.945	1.29
890.112	-2.37
890.28	3.14
890.447	22.01
890.615	8.21
890.782	12.04
890.949	-4.27
891.117	-0.29
891.284	1.14
891.452	5.33
891.619	8.41
891.786	8.24
891.953	19.1
892.121	17.68
892.288	6.53
892.455	14.4
892.623	14.13
892.79	12.53
892.957	6.22
893.124	20.31
893.291	10.14
893.459	16.95
893.626	20.92
893.793	-1.91
893.96	13.72
894.127	11.29
894.294	9.81
894.461	-6.85
894.629	11.15
894.796	4.2
894.963	-6.85
895.13	20.74
895.297	0.81
895.464	9.84
895.631	5.6
895.798	20.37
895.965	-5.19
896.132	-6.18
896.299	10.2
896.466	17.09
896.633	0.8
896.8	-5.99
896.967	11.47
897.134	4.56
897.301	-7.82
897.467	9.3
897.634	7.97
897.801	15.08
897.968	7.45
898.135	11.36
898.302	-5.98
898.469	13.69
898.635	5.59
898.802	6.86
898.969	-5.73
899.136	9.89
899.303	-3.49
