Data from x0_Transmission_15-14-52-184.txt Node
Date: Thu May 02 15:14:52 EDT 2019
User: dh1006
Spectrometer: USB4E01358
Autoset integration time: false
Trigger mode: 4
Integration Time (sec): 8.000000E-2
Scans to average: 1
Electric dark correction enabled: true
Nonlinearity correction enabled: false
Boxcar width: 0
Stray light correction enabled: false
XAxis mode: Wavelengths
Stop averaging: false
Number of Pixels in Spectrum: 3648
>>>>>Begin Spectral Data<<<<<
176.727	173.33
176.966	173.33
177.205	173.33
177.444	65.73
177.683	-37.57
177.922	68.98
178.161	349.07
178.4	78
178.638	-2600
178.877	18.84
179.116	232.63
179.355	-531.82
179.593	-72.51
179.832	6.81
180.071	125.44
180.309	1877.78
180.548	68.66
180.786	56.7
181.025	2925
181.263	-80.69
181.502	-278.57
181.74	42.55
181.979	52.62
182.217	-105.2
182.456	40.7
182.694	45.25
182.932	-34.05
183.17	-40.18
183.409	-185.71
183.647	12.43
183.885	-177.89
184.123	222.3
184.361	121.58
184.6	82.49
184.838	1444.44
185.076	69.64
185.314	8.5
185.552	-15.12
185.79	39.16
186.028	50.56
186.266	102.45
186.503	98.83
186.741	130.96
186.979	-9.77
187.217	-1950
187.455	333.19
187.693	42.39
187.93	-25.29
188.168	2112.5
188.406	60.94
188.643	25.4
188.881	-546.38
189.119	-86.39
189.356	-156.48
189.594	87.45
189.831	21.49
190.069	-42.24
190.306	-59.27
190.543	-11.23
190.781	88.05
191.018	-21.14
191.256	490.16
191.493	-49.31
191.73	98.98
191.967	-255.36
192.205	-123.64
192.442	-95.82
192.679	5200
192.916	89.38
193.153	179.2
193.39	-1137.5
193.628	299.39
193.865	70.27
194.102	340.48
194.339	16.88
194.576	70.4
194.813	41.74
195.049	211.25
195.286	-10.99
195.523	77.69
195.76	57.02
195.997	-125.81
196.234	67.12
196.47	-17.06
196.707	-48.51
196.944	25.55
197.18	85.96
197.417	116.8
197.654	11.89
197.89	19.12
198.127	14.57
198.363	-463.22
198.6	-52.35
198.836	80.89
199.073	42.15
199.309	30.9
199.546	46.85
199.782	-263.68
200.018	-563.33
200.255	62.37
200.491	-151.16
200.727	110.23
200.963	-16.08
201.199	-279.68
201.436	-51.12
201.672	-21.44
201.908	12.62
202.144	35.45
202.38	383.16
202.616	12.1
202.852	188.78
203.088	-1.35
203.324	-451.58
203.56	-507.32
203.796	72.94
204.032	86.03
204.268	379.17
204.503	157.42
204.739	-22.54
204.975	-38.33
205.211	86.67
205.446	18.76
205.682	7.37
205.918	30.23
206.153	-21.44
206.389	104.72
206.625	189.24
206.86	-0
207.096	-121.87
207.331	59.19
207.567	55.91
207.802	-53.06
208.037	-67.83
208.273	30.3
208.508	-120.37
208.744	-26.61
208.979	14.23
209.214	-10075
209.449	-84.48
209.685	-153.32
209.92	217.92
210.155	103.78
210.39	40.28
210.625	417.86
210.86	-119.12
211.095	159.31
211.33	-11.61
211.565	-240.74
211.8	-59.77
212.035	204.13
212.27	109.52
212.505	4.61
212.74	42.89
212.975	1477.27
213.21	129.1
213.444	-102.74
213.679	49.55
213.914	-7.44
214.149	39.25
214.383	57.42
214.618	44.42
214.853	-55.08
215.087	-104.84
215.322	55.32
215.556	-169.85
215.791	-997.67
216.025	-182.64
216.26	-173.86
216.494	650
216.729	-96.3
216.963	-7.32
217.197	25.4
217.432	24.5
217.666	443.9
217.9	17.38
218.135	24.85
218.369	3177.78
218.603	163.47
218.837	60.42
219.071	40.62
219.306	71.58
219.54	83.51
219.774	84.98
220.008	108.98
220.242	-633.88
220.476	-76.47
220.71	48.42
220.944	120.09
221.178	-428.05
221.411	-44.83
221.645	0
221.879	76.32
222.113	-2166.67
222.347	-32.96
222.58	-48.77
222.814	23.33
223.048	-204.63
223.281	-78.48
223.515	253.1
223.749	-56.87
223.982	14.65
224.216	780
224.449	94.08
224.683	-252.33
224.916	-36.11
225.15	27.29
225.383	195
225.617	-28.98
225.85	26.17
226.083	118.7
226.317	111.09
226.55	-45.73
226.783	553.7
227.016	-16.53
227.25	-1002.86
227.483	-626.79
227.716	-35.62
227.949	-43.72
228.182	-86.39
228.415	-131.65
228.648	-398.12
228.881	45.57
229.114	-150.14
229.347	60.03
229.58	520
229.813	65
230.046	34.47
230.279	-168.27
230.512	10.14
230.745	-22.29
230.977	124.13
231.21	51.5
231.443	-141.11
231.675	240.34
231.908	2447.06
232.141	107.64
232.373	-191.58
232.606	-61.9
232.839	-10.44
233.071	-156
233.304	-206.82
233.536	-260
233.769	107.83
234.001	14
234.233	-156.48
234.466	28.39
234.698	184.8
234.93	-134.48
235.163	-7.63
235.395	-846.51
235.627	-9.85
235.86	-282.61
236.092	128.68
236.324	-39.76
236.556	31.35
236.788	60.04
237.02	142.82
237.252	43.19
237.484	41.31
237.716	910
237.948	141.58
238.18	96.69
238.412	91.46
238.644	218.36
238.876	211.25
239.108	-86.39
239.34	-0
239.571	-95.03
239.803	-19.83
240.035	176.27
240.267	76.67
240.498	-4477.78
240.73	980.33
240.962	248.24
241.193	89.17
241.425	46.65
241.656	121.58
241.888	56.52
242.119	17.11
242.351	-453.49
242.582	67.45
242.814	-21.49
243.045	42.88
243.277	67.91
243.508	140.54
243.739	-232.95
243.971	72.45
244.202	34.99
244.433	-7.51
244.664	-34.99
244.896	37.03
245.127	4.81
245.358	-185.71
245.589	-97.69
245.82	299.71
246.051	-14.57
246.282	24.43
246.513	197.19
246.744	49.82
246.975	-47.56
247.206	-60.07
247.437	7.32
247.668	-397.22
247.899	109.9
248.129	138.13
248.36	-120.09
248.591	-160.31
248.822	83.72
249.052	-67.91
249.283	3.49
249.514	6.87
249.744	-83.09
249.975	86.39
250.206	-47.77
250.436	59.27
250.667	411.51
250.897	10.72
251.128	37.34
251.358	544.59
251.589	198.61
251.819	3.1
252.049	150.18
252.28	11.82
252.51	-59.19
252.74	-55.78
252.971	-4225
253.201	178.65
253.431	-52.43
253.661	-355.66
253.891	-154.37
254.121	11.71
254.352	-69.33
254.582	111.43
254.812	67.33
255.042	-39.2
255.272	61.42
255.502	21.2
255.732	-4044.44
255.962	788.52
256.192	10.1
256.421	-8.58
256.651	55.38
256.881	-132.89
257.111	96.11
257.341	-36.03
257.57	136.64
257.8	71.56
258.03	-11.93
258.259	28.93
258.489	49.83
258.719	-10.18
258.948	-1.74
259.178	12.01
259.407	92.04
259.637	-117.62
259.866	203.13
260.096	-19.6
260.325	127.75
260.555	27.31
260.784	7.44
261.013	-951.79
261.243	-16.95
261.472	70.27
261.701	-46.22
261.931	-93.56
262.16	110.85
262.389	-9.9
262.618	-64.02
262.847	-2.61
263.076	33.05
263.305	10.24
263.535	-49.06
263.764	123.3
263.993	25.6
264.222	49.77
264.451	-4.92
264.679	22.88
264.908	29.28
265.137	2.29
265.366	45.54
265.595	-68.42
265.824	53.67
266.053	57.08
266.281	-375.72
266.51	-29.7
266.739	96.04
266.967	19.9
267.196	-2275
267.425	-9.9
267.653	-59.54
267.882	5.74
268.11	41.27
268.339	14.65
268.567	-294.34
268.796	-185.71
269.024	92.86
269.253	-160.37
269.481	43.47
269.709	14.18
269.938	190.06
270.166	71.87
270.394	-102.74
270.623	91.62
270.851	-121.64
271.079	-11.66
271.307	57.1
271.535	118.7
271.764	63.19
271.992	225.89
272.22	-20.22
272.448	15.2
272.676	26.61
272.904	-44.83
273.132	19.02
273.36	-31.05
273.588	-23.96
273.816	2.36
274.043	21.02
274.271	78.79
274.499	28.89
274.727	-252.78
274.955	47.61
275.182	-32.33
275.41	62.9
275.638	239.35
275.866	704.17
276.093	-3.8
276.321	-55.19
276.548	108.48
276.776	-8.5
277.003	73.29
277.231	-482.86
277.458	-25.49
277.686	-16.25
277.913	24.38
278.141	-22.1
278.368	120.55
278.595	13.05
278.823	-380.49
279.05	-42.24
279.277	-38.67
279.505	35.86
279.732	-176.1
279.959	-408.57
280.186	-31.94
280.413	-1.66
280.641	22.54
280.868	-23.49
281.095	-169.33
281.322	-1083.33
281.549	31.33
281.776	78
282.003	29.82
282.23	-49.31
282.457	98.95
282.683	7.43
282.91	-195
283.137	3.68
283.364	2422.73
283.591	-223.95
283.818	-3900
284.044	60.47
284.271	111.14
284.498	34.32
284.724	31.89
284.951	-1.69
285.178	40.72
285.404	-20.25
285.631	42.89
285.857	-24.83
286.084	30.66
286.31	-66.18
286.537	-60.05
286.763	-22.62
286.99	2.07
287.216	3755.56
287.442	159.18
287.669	47.71
287.895	7.8
288.121	233.81
288.347	92.86
288.574	0
288.8	-13.77
289.026	-64.02
289.252	-30.03
289.478	-87.31
289.704	-18.1
289.931	40.43
290.157	-9.68
290.383	30.43
290.609	91.99
290.835	-38.05
291.06	23.1
291.286	17.06
291.512	-142.77
291.738	143.78
291.964	23.69
292.19	-273.11
292.416	-146.77
292.641	28.75
292.867	6.39
293.093	854.29
293.319	33.74
293.544	0
293.77	62.9
293.995	251.61
294.221	-27.86
294.447	46
294.672	92.86
294.898	42.29
295.123	-26.4
295.349	-94.62
295.574	332.93
295.799	78.06
296.025	-55.42
296.25	-41.31
296.476	91
296.701	18.37
296.926	-47.27
297.151	-275.76
297.377	371.43
297.602	-201.58
297.827	108.53
298.052	227.5
298.277	83.17
298.502	-11.35
298.727	170.6
298.953	-1.78
299.178	72.47
299.403	65.33
299.628	40.16
299.852	-43.7
300.077	-2676.47
300.302	-64.5
300.527	-102.28
300.752	-79.32
300.977	494
301.202	980.33
301.426	0
301.651	111.43
301.876	54.17
302.101	-46.61
302.325	-60.65
302.55	-56.32
302.775	0
302.999	37.52
303.224	-20.31
303.448	5.94
303.673	-529.63
303.897	-4.41
304.122	64.33
304.346	23.39
304.571	62.62
304.795	256.46
305.019	36.71
305.244	116.42
305.468	52.7
305.692	-78.79
305.917	-53.72
306.141	-36.94
306.365	21.31
306.589	-133.1
306.813	-16.57
307.038	89.76
307.262	-68.65
307.486	-21.67
307.71	3575
307.934	85.3
308.158	-7.51
308.382	-2.91
308.606	-125.98
308.83	-27.71
309.054	-179.11
309.278	16.56
309.502	51.4
309.725	97.69
309.949	44.38
310.173	44.83
310.397	6.03
310.62	135.82
310.844	79.78
311.068	73.13
311.292	-13.49
311.515	-2.89
311.739	1218.75
311.962	-98.87
312.186	33.69
312.41	-71.23
312.633	11.02
312.857	68.9
313.08	-264.81
313.303	-33.05
313.527	-71.23
313.75	25.74
313.974	-26.63
314.197	-145.49
314.42	24.02
314.644	-5.22
314.867	-35.14
315.09	0
315.313	35.22
315.536	-21.77
315.76	-80.69
315.983	86.24
316.206	16.55
316.429	-40.62
316.652	-92.44
316.875	-1.06
317.098	-1.6
317.321	36.32
317.544	-56.87
317.767	70.44
317.99	0
318.213	-16.86
318.436	-176.9
318.658	-14.49
318.881	-110.17
319.104	-52.62
319.327	-39.76
319.55	46.61
319.772	228.53
319.995	-260
320.218	22.76
320.44	-10.32
320.663	0
320.885	-148.48
321.108	66.87
321.331	27.98
321.553	-16.46
321.776	-8450
321.998	32.22
322.22	-48.15
322.443	147.73
322.665	-104
322.888	30.74
323.11	108.53
323.332	8.29
323.555	44.61
323.777	-125.44
323.999	-34.35
324.221	45.57
324.443	112.07
324.666	-5.42
324.888	43.33
325.11	-128.93
325.332	-19.6
325.554	-79.72
325.776	-58.47
325.998	-423.26
326.22	-433.33
326.442	-22.03
326.664	7.83
326.886	-196.23
327.108	71.72
327.33	-225.33
327.551	-21.17
327.773	20.8
327.995	-23.32
328.217	12.43
328.439	21.31
328.66	46.17
328.882	-204.13
329.104	69.64
329.325	-11.69
329.547	18.11
329.769	-38.61
329.99	33.03
330.212	1534.43
330.433	0
330.655	22.31
330.876	57.49
331.098	809.84
331.319	0
331.54	3.62
331.762	-46.43
331.983	10.44
332.204	-23.32
332.426	24.85
332.647	138.76
332.868	0
333.089	-103.1
333.311	21.77
333.532	-28.07
333.753	-1213.33
333.974	-61.18
334.195	-28.26
334.416	64.01
334.637	-13.98
334.858	-21.79
335.079	-145.39
335.3	-62.34
335.521	-58.79
335.742	-320.29
335.963	-39.69
336.184	129.1
336.405	42.14
336.626	48.8
336.846	-49.37
337.067	-18.57
337.288	41.55
337.509	-520
337.729	53.06
337.95	-544.19
338.171	-78.39
338.391	-28.32
338.612	16.34
338.833	1137.5
339.053	-23.71
339.274	68.42
339.494	3.11
339.715	484.92
339.935	-139.87
340.156	63.35
340.376	-36.71
340.596	36.03
340.817	1151.43
341.037	4.11
341.257	8.26
341.478	-46.17
341.698	-10.6
341.918	-154.37
342.138	57.06
342.359	-76.88
342.579	11.69
342.799	-64.02
343.019	-57.07
343.239	14.4
343.459	19.28
343.679	-1.91
343.899	73.83
344.119	6.86
344.339	-131.65
344.559	14.44
344.779	86.67
344.999	-16.84
345.219	33.62
345.439	-23.88
345.658	9244.44
345.878	243.75
346.098	0
346.318	15.44
346.537	-0
346.757	131.8
346.977	19.02
347.196	-11.8
347.416	-13.38
347.636	32.33
347.855	-27.31
348.075	14.77
348.294	56.88
348.514	-96.3
348.733	-33.09
348.953	-260
349.172	104
349.392	-30.71
349.611	7.37
349.83	-45.92
350.05	-137.35
350.269	9.21
350.488	41.16
350.707	134.48
350.927	-7.46
351.146	73.42
351.365	-13.64
351.584	9.85
351.803	54.96
352.023	7.8
352.242	53.2
352.461	-23.11
352.68	72.51
352.899	36.32
353.118	-134.35
353.337	-54.17
353.556	-186.26
353.775	72.22
353.993	-3.3
354.212	46.86
354.431	-12.45
354.65	33.59
354.869	12.62
355.088	33.7
355.306	52.33
355.525	26.1
355.744	-40.47
355.962	83.87
356.181	-17.57
356.4	-3.8
356.618	-50.73
356.837	-122.08
357.055	26.64
357.274	111.96
357.492	-505.56
357.711	36.98
357.929	-6.48
358.148	-381.33
358.366	87.43
358.585	65.73
358.803	-133
359.021	310.62
359.24	38.52
359.458	-276.9
359.676	37.83
359.894	35.77
360.113	13.91
360.331	54.97
360.549	1225.71
360.767	77.25
360.985	97.01
361.203	-44.66
361.421	1.12
361.639	13.83
361.857	95.61
362.075	-53.42
362.293	28.68
362.511	-94.62
362.729	-10.6
362.947	-52.85
363.165	178.75
363.383	-15.52
363.601	32.5
363.819	29.7
364.036	-17.66
364.254	201.27
364.472	3.98
364.689	0
364.907	-11.26
365.125	251.87
365.342	-217.92
365.56	56.6
365.778	7.1
365.995	-641.87
366.213	-160.75
366.43	-64.5
366.648	-90.28
366.865	17.21
367.083	-9.24
367.3	-108.33
367.517	-59.09
367.735	-69.29
367.952	-14.49
368.17	3.91
368.387	17.15
368.604	15.99
368.821	17.93
369.039	-5.38
369.256	11.54
369.473	21.04
369.69	-76.02
369.907	-6500
370.124	2600
370.341	210.29
370.558	37.53
370.776	52.24
370.993	25.4
371.21	-18.31
371.426	-102.02
371.643	-52.78
371.86	42.14
372.077	-26.9
372.294	-6.63
372.511	30.23
372.728	21.44
372.945	53.53
373.161	-10.55
373.378	-83.63
373.595	-67.01
373.811	55.75
374.028	-21.79
374.245	-34.3
374.461	168.67
374.678	36.78
374.895	-47.79
375.111	-46.82
375.328	42.08
375.544	860.81
375.761	-37.91
375.977	3.6
376.194	-34.82
376.41	-91.23
376.626	-15.7
376.843	-1.38
377.059	24.74
377.275	22.1
377.492	22.57
377.708	30.01
377.924	14.95
378.14	-5.74
378.357	75.58
378.573	-20.57
378.789	-23.44
379.005	-5.17
379.221	-49.64
379.437	22.33
379.653	20.7
379.869	3.52
380.085	-96.98
380.301	48.15
380.517	1.6
380.733	12.21
380.949	-30.87
381.165	-2.55
381.381	24.47
381.597	15.14
381.813	54.83
382.028	-87.71
382.244	-4.59
382.46	-42.28
382.676	-40.97
382.891	-111.1
383.107	9.05
383.323	10.25
383.538	-32.55
383.754	20.7
383.969	23.21
384.185	16.6
384.4	13.5
384.616	-61.74
384.831	46.74
385.047	-42.62
385.262	25.16
385.478	-14.08
385.693	50.55
385.909	22.93
386.124	32.6
386.339	-3.38
386.554	3.12
386.77	42.67
386.985	-35.47
387.2	17.28
387.415	-45.54
387.631	47.72
387.846	20.3
388.061	68.42
388.276	-40.15
388.491	28.48
388.706	-51.84
388.921	-9.65
389.136	7
389.351	20.48
389.566	4.21
389.781	58.56
389.996	53.66
390.211	29.85
390.426	26.92
390.641	38.42
390.855	-42.03
391.07	24.7
391.285	-16.05
391.5	-30.12
391.714	32.07
391.929	35.6
392.144	21.87
392.358	-23.31
392.573	-26.2
392.788	1.39
393.002	25.82
393.217	6.85
393.431	-3.25
393.646	5.44
393.86	-12.86
394.075	8.96
394.289	25.23
394.504	-2.12
394.718	20.07
394.933	-16.26
395.147	7.83
395.361	26.73
395.576	14.27
395.79	-6.24
396.004	17.42
396.218	-2.8
396.432	22.61
396.647	22.47
396.861	16.72
397.075	24.38
397.289	4.68
397.503	19.31
397.717	0
397.931	7.47
398.145	-3.88
398.359	3.51
398.573	15.2
398.787	14.11
399.001	12.62
399.215	15.14
399.429	0.39
399.643	3.9
399.857	10.14
400.07	17.63
400.284	23.53
400.498	-6.47
400.712	24.91
400.925	12.21
401.139	18.26
401.353	11.32
401.566	14.72
401.78	2.79
401.994	4.41
402.207	15.04
402.421	15.05
402.634	-1.18
402.848	17.41
403.061	12.76
403.275	13.28
403.488	13.02
403.702	10.92
403.915	13.06
404.128	9.33
404.342	13.37
404.555	3.48
404.768	16.45
404.982	22.88
405.195	9.58
405.408	10.76
405.621	6.81
405.835	17.32
406.048	6.31
406.261	12.36
406.474	14.49
406.687	11.92
406.9	11.89
407.113	13.75
407.326	14.62
407.539	6.8
407.752	11.89
407.965	15.51
408.178	13.23
408.391	14.3
408.604	15.45
408.817	13.38
409.029	16.87
409.242	4.95
409.455	12.66
409.668	6.09
409.881	11.9
410.093	13.5
410.306	11.95
410.519	10.02
410.731	10.17
410.944	15.02
411.157	14.22
411.369	9.31
411.582	14.89
411.794	9.83
412.007	8.14
412.219	13.3
412.432	13.51
412.644	14.63
412.857	11.5
413.069	10.73
413.281	10.02
413.494	11.35
413.706	13.37
413.918	8.69
414.131	11.9
414.343	11.24
414.555	9.24
414.767	9.74
414.979	11.33
415.192	7.02
415.404	6.04
415.616	7.52
415.828	7.95
416.04	8.59
416.252	10.52
416.464	5.27
416.676	11.81
416.888	10.36
417.1	4.19
417.312	10.96
417.524	10.5
417.736	4.06
417.948	6.64
418.159	9.79
418.371	9.52
418.583	6.41
418.795	8.01
419.007	8.74
419.218	8.72
419.43	7.55
419.642	7.44
419.853	7.73
420.065	6.49
420.276	9.06
420.488	7.2
420.7	6.14
420.911	8.69
421.123	6.62
421.334	7.79
421.546	7.31
421.757	7.33
421.969	6.39
422.18	5.83
422.391	7.42
422.603	5.77
422.814	8.23
423.025	5.05
423.237	8.62
423.448	6.5
423.659	5.94
423.87	0.82
424.082	4.12
424.293	8.86
424.504	6.73
424.715	5.43
424.926	4.44
425.137	4.49
425.348	5.29
425.559	5.69
425.77	6.62
425.981	5.44
426.192	6.05
426.403	4.61
426.614	3.14
426.825	7.19
427.036	5.49
427.247	3.96
427.458	4.9
427.668	3.05
427.879	4.89
428.09	4.68
428.301	2.94
428.511	1.88
428.722	3.27
428.933	1.85
429.143	2.94
429.354	4.48
429.565	3.01
429.775	5.81
429.986	3.63
430.196	4.13
430.407	0.54
430.617	1.7
430.828	3.39
431.038	3.97
431.249	0.89
431.459	2.8
431.669	4.6
431.88	3.92
432.09	4.98
432.3	4.29
432.511	2.68
432.721	4.71
432.931	3.25
433.141	2.26
433.351	2.78
433.562	5.74
433.772	3.14
433.982	2.69
434.192	4.56
434.402	5
434.612	-0.18
434.822	1.6
435.032	4.65
435.242	4.68
435.452	1.31
435.662	0.94
435.872	3.27
436.082	2.01
436.292	4.3
436.502	4.14
436.711	0.17
436.921	4.09
437.131	3.87
437.341	0.58
437.551	3
437.76	5.42
437.97	2.28
438.18	2.28
438.389	2.18
438.599	1.63
438.808	3
439.018	1.89
439.228	2.26
439.437	1.46
439.647	1.69
439.856	4.07
440.066	1.1
440.275	1.02
440.484	4.92
440.694	1.42
440.903	2.28
441.113	3.72
441.322	4.19
441.531	1.02
441.741	2.53
441.95	3.86
442.159	1.62
442.368	3.95
442.577	2.58
442.787	3.91
442.996	2.31
443.205	1.34
443.414	2.98
443.623	5.79
443.832	1.44
444.041	3.12
444.25	4.98
444.459	4.32
444.668	2.29
444.877	-0.77
445.086	0.74
445.295	3.77
445.504	2.75
445.713	3.85
445.922	1.22
446.13	1.6
446.339	0.54
446.548	0.35
446.757	1.76
446.965	-1.21
447.174	3.49
447.383	1.74
447.591	2.14
447.8	1.67
448.009	2.83
448.217	4.72
448.426	1.25
448.634	2.78
448.843	-0.13
449.051	2.99
449.26	4.54
449.468	3.17
449.677	3.15
449.885	2.74
450.093	3.01
450.302	0.97
450.51	1.46
450.719	1.44
450.927	0.93
451.135	-0.33
451.343	2.46
451.552	1.55
451.76	3.03
451.968	2.79
452.176	2
452.384	1.02
452.592	1.58
452.8	3.79
453.009	1.98
453.217	4.03
453.425	-0.27
453.633	1.6
453.841	0.06
454.049	1.01
454.257	1.93
454.464	4.08
454.672	5.03
454.88	1.04
455.088	0.99
455.296	0.28
455.504	2.36
455.711	2.86
455.919	2.37
456.127	1.98
456.335	2.63
456.542	3.96
456.75	0.59
456.958	0.69
457.165	1.15
457.373	0.73
457.581	1.39
457.788	-0.53
457.996	1.2
458.203	3.89
458.411	1.58
458.618	-0.36
458.826	3.25
459.033	5
459.24	2.39
459.448	0.33
459.655	2.8
459.863	0.89
460.07	3.39
460.277	-0.68
460.484	5.6
460.692	1.17
460.899	1.16
461.106	2.29
461.313	3.43
461.52	3.63
461.728	1.76
461.935	2.28
462.142	0.98
462.349	4.79
462.556	3.63
462.763	1.89
462.97	-1.79
463.177	3.43
463.384	1.26
463.591	1.48
463.798	3.77
464.005	1.54
464.212	2.72
464.418	3.05
464.625	0.79
464.832	3.34
465.039	1.22
465.246	1.62
465.452	4.78
465.659	2.94
465.866	3.53
466.072	-0.81
466.279	1.33
466.486	2.92
466.692	3.28
466.899	2.75
467.105	2.25
467.312	1.32
467.519	3.93
467.725	-0.28
467.931	1.35
468.138	1.96
468.344	2.16
468.551	0.94
468.757	2.08
468.964	3.94
469.17	0.98
469.376	3.19
469.583	2.65
469.789	4.93
469.995	-1.31
470.201	2.95
470.408	2.67
470.614	2.41
470.82	1.47
471.026	1.13
471.232	0.56
471.438	1.41
471.644	2.81
471.85	3.29
472.056	2.22
472.262	3.44
472.468	1.49
472.674	1.29
472.88	3.57
473.086	1.97
473.292	3.21
473.498	1.98
473.704	3.16
473.91	1.2
474.116	1.52
474.321	1.39
474.527	1.8
474.733	2.2
474.939	2.37
475.144	2.25
475.35	0.7
475.556	0.55
475.761	3.18
475.967	4.07
476.173	2.76
476.378	3.55
476.584	2.68
476.789	2.48
476.995	2.19
477.2	3.81
477.406	3.49
477.611	2.48
477.817	3.05
478.022	2.11
478.227	1.82
478.433	3.36
478.638	2.69
478.843	3.55
479.049	3.83
479.254	2.47
479.459	2.32
479.664	2.9
479.87	4.32
480.075	2.36
480.28	2.64
480.485	3.21
480.69	3.21
480.895	3.91
481.1	4.6
481.306	4.64
481.511	3.37
481.716	4.05
481.921	2.49
482.126	3.51
482.33	3.82
482.535	4.24
482.74	2.03
482.945	3.95
483.15	2.7
483.355	3.1
483.56	3.43
483.765	2.02
483.969	3
484.174	4.1
484.379	2.57
484.583	3.31
484.788	3.5
484.993	3.98
485.197	5.01
485.402	3.74
485.607	4.22
485.811	4.41
486.016	4.18
486.22	5.6
486.425	5.87
486.629	4.7
486.834	3.31
487.038	4.22
487.243	4.1
487.447	4.46
487.652	4.39
487.856	4.96
488.06	5.04
488.265	5.47
488.469	5.11
488.673	5.39
488.877	4.37
489.082	5.19
489.286	4.3
489.49	5.2
489.694	5.18
489.898	5.34
490.102	4.45
490.307	5.86
490.511	5.56
490.715	5.1
490.919	5.78
491.123	5.79
491.327	6.24
491.531	5.46
491.735	6.8
491.939	6.13
492.143	6.8
492.346	6.09
492.55	6.39
492.754	6.7
492.958	6.96
493.162	6.56
493.366	5.93
493.569	6.92
493.773	6.76
493.977	7.58
494.18	8.02
494.384	7.38
494.588	8.26
494.791	7.34
494.995	6.86
495.199	8.78
495.402	8.66
495.606	7.7
495.809	8.72
496.013	7.56
496.216	9.95
496.42	7.91
496.623	7.55
496.827	9.5
497.03	9
497.233	9.73
497.437	8.89
497.64	9.45
497.843	9.66
498.047	10.42
498.25	10.73
498.453	10.92
498.656	10.13
498.86	10.89
499.063	11
499.266	10.25
499.469	10.83
499.672	11.31
499.875	12.2
500.078	11.26
500.281	11.64
500.484	12.35
500.687	11.37
500.89	11.87
501.093	12.91
501.296	12.76
501.499	12.45
501.702	13.44
501.905	13.78
502.108	14.91
502.311	12.89
502.514	14.17
502.716	14.36
502.919	13.83
503.122	13.19
503.325	14.65
503.527	14.8
503.73	14.55
503.933	14.26
504.135	15.33
504.338	14.52
504.541	15.12
504.743	15.95
504.946	14.8
505.148	15.48
505.351	15.14
505.553	14.08
505.756	16.19
505.958	15.97
506.161	16.46
506.363	15.76
506.565	16.17
506.768	15.27
506.97	14.19
507.172	15.41
507.375	15.71
507.577	13.76
507.779	15.5
507.982	15.34
508.184	15.65
508.386	15.14
508.588	15.15
508.79	14.73
508.993	15.79
509.195	15.01
509.397	15.58
509.599	14.98
509.801	14.49
510.003	14.53
510.205	14.9
510.407	14.22
510.609	14.48
510.811	14.75
511.013	14.17
511.215	13.88
511.417	13.88
511.618	14.25
511.82	13.7
512.022	12.62
512.224	12.94
512.426	12.29
512.627	12.22
512.829	12.8
513.031	12.92
513.233	12.38
513.434	12.23
513.636	12.16
513.838	12.2
514.039	11.69
514.241	11.18
514.442	10.92
514.644	11.72
514.845	10.63
515.047	10.81
515.248	10.28
515.45	10.32
515.651	10.17
515.853	10.51
516.054	10.07
516.256	9.38
516.457	10.51
516.658	10
516.86	9.13
517.061	9.08
517.262	9.03
517.463	9.34
517.665	9.17
517.866	8.65
518.067	8.49
518.268	9.11
518.469	7.99
518.67	7.98
518.872	7.62
519.073	8.29
519.274	7.53
519.475	7.42
519.676	6.99
519.877	7.67
520.078	8.01
520.279	7.37
520.48	6.42
520.681	6.95
520.881	6.92
521.082	7.24
521.283	7.34
521.484	6.95
521.685	6.66
521.886	6.68
522.086	6.3
522.287	6.4
522.488	6.51
522.689	6.69
522.889	6.22
523.09	5.64
523.291	6.51
523.491	6.06
523.692	5.77
523.892	5.76
524.093	6.17
524.294	5.76
524.494	5.56
524.695	5.3
524.895	5.19
525.096	5.5
525.296	5.17
525.496	5.31
525.697	4.93
525.897	5.3
526.098	5.32
526.298	5.21
526.498	5.02
526.699	5.14
526.899	4.86
527.099	4.58
527.299	4.42
527.499	4.89
527.7	4.22
527.9	4.43
528.1	4.52
528.3	4.45
528.5	4.31
528.7	4.1
528.9	4.05
529.1	3.85
529.3	3.86
529.5	3.84
529.7	3.73
529.9	4.44
530.1	3.29
530.3	3.79
530.5	3.97
530.7	3.84
530.9	3.94
531.1	3.85
531.3	3.75
531.499	3.41
531.699	3.89
531.899	3.5
532.099	3.89
532.298	3.31
532.498	3.59
532.698	3.51
532.897	2.97
533.097	3.34
533.297	3.25
533.496	3.48
533.696	3.39
533.895	3.08
534.095	3.33
534.294	3.29
534.494	2.92
534.693	2.91
534.893	3.36
535.092	3.38
535.292	3.01
535.491	3.12
535.69	2.28
535.89	2.83
536.089	3.1
536.288	2.86
536.488	2.64
536.687	3.13
536.886	2.52
537.085	2.68
537.285	2.78
537.484	2.9
537.683	2.68
537.882	2.47
538.081	2.55
538.28	2.6
538.479	2.6
538.678	2.26
538.877	2.84
539.076	2.63
539.275	2.39
539.474	2.29
539.673	2.63
539.872	2.42
540.071	2.8
540.27	2.75
540.469	2.7
540.668	2.83
540.867	2.58
541.065	2.39
541.264	2.23
541.463	2.43
541.662	2.03
541.861	2.47
542.059	2.34
542.258	2.29
542.457	2.59
542.655	1.98
542.854	2.4
543.052	1.97
543.251	2.25
543.45	2.11
543.648	2.08
543.847	2.51
544.045	1.69
544.244	2.12
544.442	2.24
544.641	2.04
544.839	2.37
545.037	2.3
545.236	2.09
545.434	2.02
545.632	2.18
545.831	2.31
546.029	1.74
546.227	1.93
546.426	2.16
546.624	1.86
546.822	1.92
547.02	1.7
547.218	1.48
547.417	1.98
547.615	1.82
547.813	2.11
548.011	1.96
548.209	2.12
548.407	2.46
548.605	2.23
548.803	1.93
549.001	1.99
549.199	1.66
549.397	1.93
549.595	1.99
549.793	2.48
549.991	1.91
550.189	2.06
550.387	2.02
550.584	1.71
550.782	1.79
550.98	1.77
551.178	2.05
551.376	1.91
551.573	1.67
551.771	1.57
551.969	2.03
552.166	1.49
552.364	1.66
552.562	1.6
552.759	2.01
552.957	1.69
553.154	1.53
553.352	1.74
553.55	1.73
553.747	1.54
553.945	1.88
554.142	1.54
554.339	1.66
554.537	1.61
554.734	1.86
554.932	1.69
555.129	1.68
555.326	1.79
555.524	1.72
555.721	1.92
555.918	1.66
556.116	1.35
556.313	1.75
556.51	1.71
556.707	1.77
556.904	1.29
557.102	1.55
557.299	1.81
557.496	1.79
557.693	1.73
557.89	1.71
558.087	1.46
558.284	1.46
558.481	1.67
558.678	1.35
558.875	1.8
559.072	1.61
559.269	1.54
559.466	1.34
559.663	1.68
559.86	1.54
560.057	1.85
560.254	1.43
560.45	1.43
560.647	1.58
560.844	1.37
561.041	1.73
561.237	1.45
561.434	1.69
561.631	1.71
561.828	1.15
562.024	1.6
562.221	1.32
562.418	1.75
562.614	1.46
562.811	1.51
563.007	1.52
563.204	1.55
563.4	1.62
563.597	1.63
563.793	1.44
563.99	1.48
564.186	1.35
564.383	1.71
564.579	1.41
564.775	1.54
564.972	1.52
565.168	1.5
565.365	1.46
565.561	1.64
565.757	1.39
565.953	1.49
566.15	1.62
566.346	1.56
566.542	1.36
566.738	1.66
566.934	1.73
567.131	1.53
567.327	1.64
567.523	1.48
567.719	1.27
567.915	1.69
568.111	1.6
568.307	1.69
568.503	1.67
568.699	1.17
568.895	1.33
569.091	1.55
569.287	1.55
569.483	1.45
569.679	1.7
569.875	1.57
570.07	1.59
570.266	1.74
570.462	1.5
570.658	1.31
570.854	1.37
571.049	1.69
571.245	1.65
571.441	1.49
571.636	1.4
571.832	1.32
572.028	1.55
572.223	1.56
572.419	1.49
572.615	1.24
572.81	1.43
573.006	1.45
573.201	1.47
573.397	1.38
573.592	1.54
573.788	1.46
573.983	1.41
574.179	1.47
574.374	1.57
574.569	1.61
574.765	1.54
574.96	1.32
575.156	1.17
575.351	1.43
575.546	1.65
575.741	1.56
575.937	1.5
576.132	1.63
576.327	1.75
576.522	1.43
576.718	1.45
576.913	1.65
577.108	1.47
577.303	1.59
577.498	1.46
577.693	1.59
577.888	1.48
578.083	1.64
578.278	1.55
578.473	1.36
578.668	1.54
578.863	1.26
579.058	1.29
579.253	1.66
579.448	1.39
579.643	1.55
579.838	1.53
580.033	1.54
580.227	1.6
580.422	1.49
580.617	1.49
580.812	1.33
581.006	1.4
581.201	1.73
581.396	1.21
581.591	1.54
581.785	1.55
581.98	1.73
582.175	1.74
582.369	1.94
582.564	1.53
582.758	1.68
582.953	1.52
583.147	1.53
583.342	1.35
583.536	1.66
583.731	1.66
583.925	1.64
584.12	1.51
584.314	1.45
584.509	1.51
584.703	1.49
584.897	1.35
585.092	1.58
585.286	1.78
585.48	1.59
585.674	1.61
585.869	1.58
586.063	1.85
586.257	1.35
586.451	1.57
586.646	1.67
586.84	1.28
587.034	1.54
587.228	1.28
587.422	1.5
587.616	1.47
587.81	1.75
588.004	1.52
588.198	1.46
588.392	1.8
588.586	1.9
588.78	1.88
588.974	1.58
589.168	1.64
589.362	1.69
589.556	1.67
589.75	1.73
589.944	1.96
590.137	1.81
590.331	1.88
590.525	2.11
590.719	1.63
590.913	1.66
591.106	1.85
591.3	1.73
591.494	1.94
591.687	1.86
591.881	1.72
592.075	1.81
592.268	1.6
592.462	1.71
592.655	1.64
592.849	1.7
593.043	1.84
593.236	1.71
593.43	1.65
593.623	1.52
593.817	1.58
594.01	1.95
594.203	1.93
594.397	1.59
594.59	1.93
594.784	1.54
594.977	1.72
595.17	1.94
595.364	1.58
595.557	1.85
595.75	1.89
595.943	1.71
596.137	1.79
596.33	1.72
596.523	1.92
596.716	1.93
596.909	1.88
597.102	2.01
597.296	1.97
597.489	1.9
597.682	1.87
597.875	1.71
598.068	1.7
598.261	1.84
598.454	1.94
598.647	1.75
598.84	1.91
599.033	1.91
599.226	1.67
599.419	1.84
599.611	1.97
599.804	1.92
599.997	1.89
600.19	1.78
600.383	1.79
600.576	1.97
600.768	1.88
600.961	1.82
601.154	1.91
601.347	2.03
601.539	1.97
601.732	2.01
601.925	2.08
602.117	2.1
602.31	2.1
602.502	2.14
602.695	1.91
602.888	1.89
603.08	1.83
603.273	2.02
603.465	2.1
603.658	2.27
603.85	2.04
604.043	2.31
604.235	2.21
604.427	2.04
604.62	1.93
604.812	2.03
605.004	2.13
605.197	2
605.389	1.88
605.581	1.96
605.774	2.12
605.966	2.14
606.158	1.95
606.35	2.27
606.543	2.01
606.735	2.3
606.927	1.98
607.119	2.3
607.311	2.01
607.503	2.23
607.695	2.17
607.887	2.33
608.079	2.46
608.271	2.29
608.463	2.1
608.655	2.16
608.847	2.37
609.039	2.25
609.231	2.26
609.423	2.42
609.615	2.22
609.807	2.24
609.999	2.54
610.191	2.38
610.382	2.47
610.574	2.35
610.766	2.33
610.958	2.33
611.15	2.59
611.341	2.43
611.533	2.61
611.725	2.47
611.916	2.58
612.108	2.56
612.3	2.49
612.491	2.47
612.683	2.54
612.874	2.59
613.066	2.58
613.257	2.62
613.449	2.45
613.64	2.55
613.832	2.46
614.023	2.44
614.215	2.6
614.406	2.54
614.598	2.69
614.789	2.77
614.98	2.84
615.172	2.64
615.363	2.97
615.554	2.45
615.746	2.74
615.937	2.53
616.128	2.69
616.319	2.78
616.511	2.53
616.702	2.51
616.893	2.85
617.084	2.71
617.275	2.67
617.466	2.91
617.658	2.66
617.849	2.64
618.04	2.83
618.231	2.82
618.422	3.02
618.613	3.13
618.804	2.73
618.995	3.1
619.186	3.03
619.377	2.91
619.568	2.96
619.758	2.83
619.949	2.95
620.14	3
620.331	2.89
620.522	3.1
620.713	2.92
620.903	2.97
621.094	3.25
621.285	2.82
621.476	3.2
621.666	3.17
621.857	3.04
622.048	3.2
622.238	3.2
622.429	3.45
622.62	3.29
622.81	3.33
623.001	3.67
623.191	3.47
623.382	3.43
623.572	3.29
623.763	3.52
623.953	3.24
624.144	3.21
624.334	3.42
624.525	3.4
624.715	3.69
624.905	3.62
625.096	3.52
625.286	3.62
625.477	3.44
625.667	3.87
625.857	3.69
626.047	3.4
626.238	3.63
626.428	3.72
626.618	3.67
626.808	3.89
626.999	3.73
627.189	3.73
627.379	3.68
627.569	3.9
627.759	3.88
627.949	4.05
628.139	3.78
628.329	3.75
628.519	3.82
628.709	3.92
628.899	3.88
629.089	3.82
629.279	4.06
629.469	3.96
629.659	3.86
629.849	4.14
630.039	3.92
630.229	4.04
630.419	4.13
630.609	4.13
630.798	4.03
630.988	4.2
631.178	3.99
631.368	3.96
631.557	4.48
631.747	4.2
631.937	4.24
632.127	4.25
632.316	4.37
632.506	4.35
632.696	4.71
632.885	4.54
633.075	4.3
633.264	4.37
633.454	4.49
633.643	4.87
633.833	4.6
634.022	4.79
634.212	4.76
634.401	4.89
634.591	4.57
634.78	4.61
634.97	4.67
635.159	4.72
635.348	4.84
635.538	4.7
635.727	4.77
635.916	4.95
636.106	4.97
636.295	4.98
636.484	4.89
636.674	5.05
636.863	4.92
637.052	5.13
637.241	4.86
637.43	5.07
637.619	4.88
637.809	5.3
637.998	5.25
638.187	5.32
638.376	5.01
638.565	5.63
638.754	5.4
638.943	5.74
639.132	5.68
639.321	5.53
639.51	5.46
639.699	5.49
639.888	5.2
640.077	5.48
640.266	5.28
640.455	5.56
640.643	5.35
640.832	5.35
641.021	5.66
641.21	5.42
641.399	5.8
641.587	5.63
641.776	5.81
641.965	5.87
642.154	6.21
642.342	5.72
642.531	6.08
642.72	6.06
642.908	5.82
643.097	6.12
643.286	6.26
643.474	6.32
643.663	6.54
643.851	5.95
644.04	6.16
644.228	6.19
644.417	6.12
644.605	6.51
644.794	6.13
644.982	6.41
645.171	6.44
645.359	6.19
645.547	6.53
645.736	6.46
645.924	6.42
646.112	6.5
646.301	6.28
646.489	6.36
646.677	6.69
646.866	6.64
647.054	6.7
647.242	6.68
647.43	7.03
647.618	7.33
647.807	7.02
647.995	7.14
648.183	7.14
648.371	7.01
648.559	6.86
648.747	7.04
648.935	7.11
649.123	7.43
649.311	7.61
649.499	7.38
649.687	7.39
649.875	7.26
650.063	7.28
650.251	7.25
650.439	7.56
650.627	7.5
650.815	7.38
651.003	7.79
651.191	7.43
651.378	7.49
651.566	7.56
651.754	7.46
651.942	7.82
652.13	7.98
652.317	8.04
652.505	8.14
652.693	8.18
652.88	8.15
653.068	8.13
653.256	8.49
653.443	8.13
653.631	8.66
653.819	8.42
654.006	8.52
654.194	8.69
654.381	8.47
654.569	8.43
654.756	8.13
654.944	8.48
655.131	8.5
655.319	8.68
655.506	8.76
655.693	8.76
655.881	8.91
656.068	8.89
656.256	9.21
656.443	8.96
656.63	9.14
656.818	9.4
657.005	9.2
657.192	9.3
657.379	9.2
657.567	9.14
657.754	9.22
657.941	9.36
658.128	9.32
658.315	9.45
658.502	9.53
658.69	9.32
658.877	9.49
659.064	9.94
659.251	9.89
659.438	9.84
659.625	9.53
659.812	10.29
659.999	9.91
660.186	10.27
660.373	10.25
660.56	10.06
660.747	10.36
660.934	10.74
661.121	10.43
661.308	10.8
661.494	10.5
661.681	10.43
661.868	10.58
662.055	10.41
662.242	10.76
662.428	10.97
662.615	10.82
662.802	11.57
662.989	11.07
663.175	11.49
663.362	11.89
663.549	11.84
663.735	11.5
663.922	11.68
664.109	11.68
664.295	11.68
664.482	11.46
664.668	11.34
664.855	11.4
665.041	11.39
665.228	11.44
665.414	12
665.601	11.88
665.787	12.31
665.974	11.97
666.16	12.06
666.347	11.77
666.533	11.69
666.719	11.97
666.906	11.78
667.092	12.03
667.278	11.95
667.465	12.33
667.651	11.98
667.837	12.63
668.023	12.36
668.21	12.19
668.396	12.45
668.582	12.16
668.768	11.88
668.954	12.19
669.14	12.51
669.327	12.78
669.513	13.02
669.699	13.46
669.885	13
670.071	13.27
670.257	13.07
670.443	13.25
670.629	12.88
670.815	13.51
671.001	13.54
671.187	13.42
671.373	13.38
671.559	13.12
671.744	14.03
671.93	13.8
672.116	14.02
672.302	14.06
672.488	13.94
672.674	15
672.859	14.48
673.045	14.13
673.231	14.05
673.417	14.45
673.602	14.29
673.788	14.65
673.974	14.3
674.159	13.86
674.345	14.5
674.531	14.26
674.716	14.06
674.902	14.68
675.087	15.11
675.273	14.64
675.459	15.14
675.644	14.51
675.83	14.62
676.015	14.26
676.2	14.76
676.386	14.43
676.571	14.44
676.757	14.47
676.942	14.99
677.128	14.47
677.313	14.57
677.498	14.5
677.684	14.64
677.869	15.06
678.054	15.56
678.24	15.37
678.425	15.34
678.61	15.34
678.795	15.79
678.98	15.33
679.166	16.03
679.351	15.43
679.536	15.7
679.721	15.36
679.906	15.46
680.091	15.67
680.276	15.6
680.461	15.92
680.647	15.84
680.832	16.12
681.017	15.61
681.202	16.17
681.387	16.2
681.572	16.23
681.756	16.48
681.941	15.94
682.126	16.28
682.311	16.21
682.496	15.66
682.681	15.78
682.866	15.76
683.051	15.44
683.235	15.89
683.42	16.54
683.605	16.27
683.79	16.35
683.974	16.49
684.159	16.66
684.344	16.03
684.529	16.73
684.713	16.73
684.898	16.23
685.083	16.44
685.267	16.29
685.452	16.48
685.636	17
685.821	16.65
686.005	16.79
686.19	16.99
686.375	17.21
686.559	16.51
686.744	16.4
686.928	16.06
687.112	16.66
687.297	16
687.481	16.25
687.666	16.22
687.85	16.26
688.034	16.2
688.219	16.31
688.403	16.36
688.587	16.26
688.772	16.65
688.956	16.6
689.14	16.83
689.324	17.08
689.509	16.91
689.693	16.61
689.877	16.65
690.061	16.8
690.245	16.75
690.43	16.08
690.614	16.66
690.798	16.18
690.982	16.4
691.166	16.67
691.35	16.63
691.534	16.39
691.718	16.71
691.902	16.81
692.086	16.82
692.27	16.16
692.454	16.49
692.638	16.77
692.822	17.04
693.006	17.38
693.19	17.08
693.373	17.06
693.557	17.41
693.741	17.35
693.925	17.13
694.109	16.6
694.293	17.18
694.476	16.81
694.66	17.32
694.844	17.03
695.027	16.88
695.211	16.8
695.395	16.95
695.578	17.42
695.762	17.26
695.946	17.32
696.129	17.02
696.313	17.05
696.497	16.93
696.68	16.9
696.864	16.79
697.047	16.89
697.231	17.17
697.414	16.34
697.598	16.38
697.781	16.11
697.965	16.09
698.148	16.1
698.331	16.23
698.515	16.74
698.698	16.77
698.881	16.62
699.065	16.41
699.248	16.59
699.431	17.01
699.615	17.19
699.798	16.66
699.981	16.89
700.165	16.96
700.348	16.69
700.531	16.65
700.714	16.16
700.897	16.77
701.08	16.42
701.264	16.71
701.447	16.75
701.63	16.52
701.813	16.68
701.996	16.66
702.179	16.8
702.362	16.39
702.545	16.99
702.728	16.51
702.911	16.81
703.094	17.04
703.277	17.11
703.46	17.27
703.643	17.1
703.826	17.16
704.009	16.26
704.191	16.43
704.374	16.58
704.557	16.32
704.74	16.82
704.923	16.2
705.106	15.98
705.288	16.07
705.471	16.05
705.654	15.96
705.837	15.73
706.019	16.1
706.202	16.94
706.385	16.98
706.567	16.18
706.75	16.23
706.932	16.14
707.115	15.9
707.298	15.77
707.48	15.89
707.663	15.44
707.845	15.9
708.028	16
708.21	16.01
708.393	16.23
708.575	16.25
708.758	16.05
708.94	16.7
709.123	16.6
709.305	16.15
709.487	16.24
709.67	16.67
709.852	16.49
710.034	16.02
710.217	15.81
710.399	16.25
710.581	16.32
710.764	16.49
710.946	16.3
711.128	16.02
711.31	15.81
711.492	15.74
711.675	15.74
711.857	15.98
712.039	15.89
712.221	15.62
712.403	15.88
712.585	15.47
712.767	15.73
712.949	15.87
713.131	16.1
713.314	15.7
713.496	16.35
713.678	15.94
713.86	16.09
714.041	15.94
714.223	15.8
714.405	15.76
714.587	15.23
714.769	15.32
714.951	15.68
715.133	15.85
715.315	16.08
715.497	16.12
715.678	15.8
715.86	16.01
716.042	16.18
716.224	15.58
716.406	15.96
716.587	16.1
716.769	15.63
716.951	15.55
717.132	15.79
717.314	15.58
717.496	15.33
717.677	15.67
717.859	15.84
718.041	15.56
718.222	14.85
718.404	15.22
718.585	15.28
718.767	15.4
718.948	15.24
719.13	15.33
719.311	15.52
719.493	15.65
719.674	15.37
719.856	14.89
720.037	15.32
720.219	15.36
720.4	15.68
720.581	15.61
720.763	15.44
720.944	15.39
721.125	15.2
721.307	15.08
721.488	15.33
721.669	15.13
721.85	15.09
722.032	15.1
722.213	15.66
722.394	16.05
722.575	14.86
722.756	14.99
722.938	15.02
723.119	15.1
723.3	14.8
723.481	15.15
723.662	15.02
723.843	15.01
724.024	14.91
724.205	15.17
724.386	15.23
724.567	15.39
724.748	15.17
724.929	15.47
725.11	15.08
725.291	16.07
725.472	15.43
725.653	15.94
725.834	15.44
726.015	15.42
726.196	14.48
726.377	15.63
726.557	14.91
726.738	15.2
726.919	15.16
727.1	14.95
727.281	15.74
727.461	15.41
727.642	15.37
727.823	15.01
728.004	14.91
728.184	15.92
728.365	16.08
728.546	14.94
728.726	15.12
728.907	14.77
729.087	14.99
729.268	14.87
729.449	14.81
729.629	14.74
729.81	14.82
729.99	14.46
730.171	14.53
730.351	14.57
730.532	13.99
730.712	14.06
730.893	14.35
731.073	14.24
731.253	14.23
731.434	14.53
731.614	14.18
731.795	14.09
731.975	14.13
732.155	14.78
732.336	15.1
732.516	14.82
732.696	14.62
732.876	14.91
733.057	14.04
733.237	13.57
733.417	13.77
733.597	14.27
733.778	13.88
733.958	14.32
734.138	13.91
734.318	13.89
734.498	14.05
734.678	14.11
734.858	14.24
735.038	14.52
735.218	14.93
735.398	14.54
735.579	14.7
735.759	14.91
735.939	14.14
736.119	14.32
736.298	14.9
736.478	14.35
736.658	14.48
736.838	14.33
737.018	14.13
737.198	14.53
737.378	14.39
737.558	14.72
737.738	14.27
737.917	15.11
738.097	14.48
738.277	14.79
738.457	14.2
738.637	14.01
738.816	13.56
738.996	14.74
739.176	14.33
739.355	14.07
739.535	14.76
739.715	13.77
739.894	14.04
740.074	13.82
740.254	13.77
740.433	13.71
740.613	14.08
740.792	13.92
740.972	13.88
741.151	13.21
741.331	13.66
741.51	14.07
741.69	14.42
741.869	14.72
742.049	14.75
742.228	14.92
742.408	14.63
742.587	14.49
742.766	14.64
742.946	14.45
743.125	14.31
743.305	14.15
743.484	14.72
743.663	14.29
743.842	13.84
744.022	14.68
744.201	13.63
744.38	14.31
744.56	13.87
744.739	14.15
744.918	14.38
745.097	13.8
745.276	14.32
745.455	13.79
745.635	14.21
745.814	14.13
745.993	14.56
746.172	14.39
746.351	14.32
746.53	14.28
746.709	13.92
746.888	14.15
747.067	13.39
747.246	13.87
747.425	13.73
747.604	13.34
747.783	14.13
747.962	13.94
748.141	14.83
748.32	14.82
748.499	14.45
748.677	14.28
748.856	13.65
749.035	13.96
749.214	15.13
749.393	14.34
749.572	14.01
749.75	14.11
749.929	14.51
750.108	14.04
750.287	14.52
750.465	13.86
750.644	13.99
750.823	14.33
751.001	14.41
751.18	14.24
751.359	14.01
751.537	13.6
751.716	13.12
751.894	13.07
752.073	13.37
752.251	13.2
752.43	13.66
752.609	14.07
752.787	13.69
752.966	14.05
753.144	13.98
753.322	13.02
753.501	13.19
753.679	13.21
753.858	13.36
754.036	12.84
754.215	12.52
754.393	12.49
754.571	13.21
754.75	13.07
754.928	13.34
755.106	13.07
755.284	14.33
755.463	13.76
755.641	13.63
755.819	13.93
755.997	14.37
756.176	13.74
756.354	14.35
756.532	13.67
756.71	14.06
756.888	14.17
757.066	14.09
757.245	14.22
757.423	12.74
757.601	13.09
757.779	12.93
757.957	13.62
758.135	13.23
758.313	13.91
758.491	13.18
758.669	13.28
758.847	13.54
759.025	13.22
759.203	14
759.381	13.48
759.559	13.68
759.737	13.6
759.915	13.31
760.092	13.6
760.27	13.3
760.448	13.09
760.626	13.14
760.804	13.49
760.981	13.41
761.159	13.98
761.337	13.41
761.515	13.73
761.692	12.53
761.87	13.61
762.048	12.7
762.226	12.88
762.403	13.53
762.581	13.22
762.759	13.26
762.936	13.27
763.114	13.4
763.291	13.57
763.469	14.3
763.647	13.43
763.824	13.57
764.002	13.27
764.179	14.16
764.357	13.36
764.534	12.83
764.712	13.4
764.889	13.57
765.066	13.74
765.244	11.99
765.421	11.98
765.599	12.97
765.776	13.37
765.953	12.15
766.131	13.31
766.308	13.04
766.485	13.22
766.663	13.33
766.84	12.74
767.017	13.1
767.194	13.34
767.372	13
767.549	13.87
767.726	13.29
767.903	12.45
768.081	12.62
768.258	13.41
768.435	13.29
768.612	13.79
768.789	13.19
768.966	13.52
769.143	13.59
769.32	13.65
769.497	12.83
769.674	13.58
769.851	13.52
770.028	12.57
770.205	13.6
770.382	13.37
770.559	12.72
770.736	13.06
770.913	13.79
771.09	13.49
771.267	13.31
771.444	13.87
771.621	12.93
771.798	12.9
771.975	14.12
772.151	14.63
772.328	14.56
772.505	13.89
772.682	13.48
772.859	14.56
773.035	12.51
773.212	13.23
773.389	13.15
773.565	14.46
773.742	13.15
773.919	13.08
774.096	12.08
774.272	13.84
774.449	11.43
774.625	12.68
774.802	11.74
774.979	12.71
775.155	11.59
775.332	13.91
775.508	13.42
775.685	13.06
775.861	13.92
776.038	13.87
776.214	12.07
776.391	13.34
776.567	12.31
776.744	13.7
776.92	12.65
777.096	12.71
777.273	13.08
777.449	13.43
777.626	11.46
777.802	12.63
777.978	12.15
778.155	11.93
778.331	12.9
778.507	12.37
778.683	11.48
778.86	12.1
779.036	13.26
779.212	12.68
779.388	12.8
779.565	12.11
779.741	12.97
779.917	12.89
780.093	11.18
780.269	11.54
780.445	11.85
780.621	12.08
780.797	11.51
780.974	11.89
781.15	12.27
781.326	12.66
781.502	11.32
781.678	12.32
781.854	12.96
782.03	10.97
782.206	12.85
782.382	10.37
782.558	13.35
782.733	13.9
782.909	12.91
783.085	12.54
783.261	12.88
783.437	11.93
783.613	11.9
783.789	12.15
783.965	12.52
784.14	12.03
784.316	11.89
784.492	11.68
784.668	11.59
784.843	12.42
785.019	12.36
785.195	11.21
785.371	13.16
785.546	12.72
785.722	13.58
785.898	11.96
786.073	12.44
786.249	12.87
786.424	12.2
786.6	11.7
786.776	11.5
786.951	12.55
787.127	12.86
787.302	13.27
787.478	11.34
787.653	12.33
787.829	11.43
788.004	12.27
788.18	12.09
788.355	12.73
788.531	12.03
788.706	12.42
788.881	11.02
789.057	11.41
789.232	11.29
789.408	12.74
789.583	13.32
789.758	12.44
789.934	11.36
790.109	11.49
790.284	11.76
790.459	11.5
790.635	13.08
790.81	13.51
790.985	13.14
791.16	11.12
791.336	12.43
791.511	11.23
791.686	12.18
791.861	11.45
792.036	15.03
792.211	11.92
792.387	12.01
792.562	12.78
792.737	10.27
792.912	11.95
793.087	10.87
793.262	12.72
793.437	13.27
793.612	11.45
793.787	11.6
793.962	11.44
794.137	11.34
794.312	10.43
794.487	11.02
794.662	11.85
794.837	11.5
795.011	10.75
795.186	12.71
795.361	11.34
795.536	12.58
795.711	10.17
795.886	10.44
796.06	10.1
796.235	10.71
796.41	10.7
796.585	11.78
796.76	11.63
796.934	10.46
797.109	11.85
797.284	8.88
797.458	12.16
797.633	13.97
797.808	10.12
797.982	12.74
798.157	13.13
798.332	13.22
798.506	11.82
798.681	9.88
798.855	10.5
799.03	11.81
799.204	13.13
799.379	9.36
799.553	11.73
799.728	9.21
799.902	13.21
800.077	11.32
800.251	12.14
800.426	10.02
800.6	9.81
800.775	11.23
800.949	11.16
801.123	12.51
801.298	11.47
801.472	10.17
801.647	12.66
801.821	10.93
801.995	11.29
802.169	8.81
802.344	12.47
802.518	12.25
802.692	9.86
802.867	14.86
803.041	10.58
803.215	8.82
803.389	8.97
803.563	10.19
803.737	10.44
803.912	11.95
804.086	10.11
804.26	13.12
804.434	10.99
804.608	9.46
804.782	11.02
804.956	11.06
805.13	10.01
805.304	10.43
805.478	11.84
805.652	11.48
805.826	14.32
806	12.6
806.174	11.08
806.348	12.73
806.522	10.82
806.696	9.71
806.87	13.22
807.044	13.74
807.218	11.25
807.392	14.54
807.566	13.62
807.739	11.11
807.913	10.43
808.087	15.35
808.261	11.77
808.435	9.52
808.608	10.59
808.782	7.33
808.956	7.39
809.13	7.29
809.303	9.9
809.477	11.9
809.651	13.16
809.824	13.43
809.998	10.09
810.172	13.46
810.345	13.62
810.519	8.72
810.692	9.66
810.866	12.93
811.04	9.77
811.213	12.85
811.387	9.98
811.56	10.9
811.734	12.05
811.907	10.67
812.081	12.91
812.254	10.98
812.428	14.28
812.601	11.01
812.774	12.63
812.948	11.04
813.121	13.48
813.295	10.7
813.468	14.44
813.641	7.9
813.815	12.6
813.988	14.09
814.161	7.99
814.335	14.61
814.508	12.8
814.681	6.69
814.854	11.48
815.028	12.82
815.201	10.38
815.374	9.61
815.547	10.99
815.72	13.02
815.894	9.6
816.067	9.22
816.24	10.63
816.413	10.61
816.586	13.28
816.759	11.05
816.932	10.11
817.105	9.69
817.278	9.47
817.452	10.77
817.625	12.77
817.798	8.81
817.971	12.69
818.144	10.38
818.317	15.63
818.49	6.94
818.662	9.06
818.835	12.1
819.008	8.69
819.181	10.73
819.354	9.87
819.527	13.08
819.7	8.36
819.873	11
820.046	12.9
820.218	10.72
820.391	14.36
820.564	12.28
820.737	12.83
820.909	13.56
821.082	11.87
821.255	11.3
821.428	15.05
821.6	11.13
821.773	10.37
821.946	12.29
822.118	14.88
822.291	13.67
822.464	7.71
822.636	12.07
822.809	10.36
822.982	10.81
823.154	10.82
823.327	14.76
823.499	6.01
823.672	13.73
823.844	8.5
824.017	12.57
824.189	7.28
824.362	8.97
824.534	10.05
824.707	10.11
824.879	8.32
825.052	8.86
825.224	10.62
825.396	7.44
825.569	13.15
825.741	9.63
825.914	7.52
826.086	12.13
826.258	11.21
826.431	11.68
826.603	9.98
826.775	11.75
826.947	8.24
827.12	12.58
827.292	15.91
827.464	9.96
827.636	11.77
827.809	8.54
827.981	11.99
828.153	9.28
828.325	11.57
828.497	11.04
828.669	12.25
828.842	10.59
829.014	8.51
829.186	11.28
829.358	10.48
829.53	11.21
829.702	12.73
829.874	11.49
830.046	10.92
830.218	14.77
830.39	8.95
830.562	14.23
830.734	13.05
830.906	11.71
831.078	8.78
831.25	10.03
831.422	8.36
831.594	10.34
831.766	12.74
831.937	10.11
832.109	13.81
832.281	12.64
832.453	7.8
832.625	5.57
832.797	10.19
832.968	12.15
833.14	11.66
833.312	13.7
833.484	10.37
833.655	12.48
833.827	9.02
833.999	12.61
834.171	10.54
834.342	13.43
834.514	9.84
834.686	9.59
834.857	9.99
835.029	6.08
835.2	14.09
835.372	7.8
835.544	9.76
835.715	6.93
835.887	10.94
836.058	7.65
836.23	13.01
836.401	8.93
836.573	9.57
836.744	9.46
836.916	4.84
837.087	7.67
837.259	8.29
837.43	11.02
837.602	8.3
837.773	9.06
837.945	7.05
838.116	6.19
838.287	5.81
838.459	14.14
838.63	6.68
838.801	13.2
838.973	5.76
839.144	10.1
839.315	11.32
839.487	12.28
839.658	12.55
839.829	13.73
840	9.91
840.172	10.01
840.343	12.47
840.514	13.13
840.685	10.57
840.856	10.08
841.027	8.77
841.199	12.12
841.37	11
841.541	7
841.712	14.63
841.883	12.26
842.054	12.51
842.225	12.82
842.396	13.88
842.567	4.38
842.738	16.2
842.909	13.79
843.08	8.76
843.251	12.5
843.422	7.96
843.593	10.29
843.764	6.58
843.935	13.48
844.106	6.87
844.277	10.43
844.448	13.1
844.619	9.52
844.79	14.81
844.96	14.88
845.131	9.75
845.302	9.1
845.473	11.43
845.644	11.62
845.814	12.78
845.985	9.56
846.156	11.8
846.327	6.86
846.497	4.02
846.668	9.89
846.839	10.6
847.01	10.15
847.18	6.34
847.351	11.86
847.522	9.62
847.692	7.01
847.863	9.25
848.033	9.42
848.204	12.81
848.375	5.59
848.545	10.2
848.716	9.45
848.886	10.27
849.057	9.66
849.227	11.11
849.398	9.37
849.568	7.09
849.739	13.79
849.909	11.49
850.08	11.2
850.25	5.93
850.421	10.59
850.591	12.01
850.761	8.44
850.932	7.04
851.102	9.41
851.272	11.53
851.443	9.05
851.613	13.17
851.783	9.89
851.954	9.83
852.124	9.63
852.294	2.42
852.465	9.7
852.635	4.05
852.805	6.89
852.975	3.89
853.145	11.74
853.316	15.38
853.486	9
853.656	8.65
853.826	5.33
853.996	7.86
854.166	1.94
854.337	7.09
854.507	4.43
854.677	15.87
854.847	16.07
855.017	3.9
855.187	13.38
855.357	4.18
855.527	12.28
855.697	4.57
855.867	7.35
856.037	12.82
856.207	12.76
856.377	7.16
856.547	1.15
856.717	8.62
856.887	9.56
857.057	12.37
857.227	1.47
857.397	10.53
857.566	8.93
857.736	2.08
857.906	5.82
858.076	12.01
858.246	10.96
858.416	7.55
858.585	8.8
858.755	10.32
858.925	10.41
859.095	5.34
859.264	13.61
859.434	6.22
859.604	7.2
859.774	7.6
859.943	11.18
860.113	0.88
860.283	5.62
860.452	9.52
860.622	9.92
860.791	10.43
860.961	11.66
861.131	7.03
861.3	10.44
861.47	6.78
861.639	5.87
861.809	15.97
861.978	9.57
862.148	10.12
862.318	12.21
862.487	5.95
862.657	4.8
862.826	4.77
862.995	12.86
863.165	12.98
863.334	8.69
863.504	6.26
863.673	14.1
863.843	5.51
864.012	18.25
864.181	9.21
864.351	10.83
864.52	5.08
864.689	6.48
864.859	8.72
865.028	7.04
865.197	10.22
865.366	7.76
865.536	11.92
865.705	9.67
865.874	7.86
866.043	1.48
866.213	5.82
866.382	1.32
866.551	2.21
866.72	17.65
866.889	10.55
867.059	-3.25
867.228	8.42
867.397	7.15
867.566	4.24
867.735	14.72
867.904	13.41
868.073	14.76
868.242	13.39
868.411	2.34
868.58	7.86
868.749	3.83
868.918	1.1
869.087	9.09
869.256	4.08
869.425	2.06
869.594	7.83
869.763	16.21
869.932	18.49
870.101	0.46
870.27	4.42
870.439	6.91
870.608	0.22
870.777	5.62
870.945	13.47
871.114	11.9
871.283	0.49
871.452	2.51
871.621	7.92
871.789	10.28
871.958	13.82
872.127	7.93
872.296	12.73
872.464	4.86
872.633	18.32
872.802	13.13
872.971	9.46
873.139	7.21
873.308	9.64
873.477	3.96
873.645	10.53
873.814	15.68
873.983	-8.27
874.151	3.5
874.32	3.82
874.488	11.13
874.657	5.48
874.826	23.62
874.994	14.59
875.163	11.02
875.331	3.42
875.5	11.02
875.668	8.26
875.837	8.45
876.005	16.94
876.174	1.63
876.342	18.5
876.51	7.81
876.679	13.63
876.847	10.21
877.016	-4.05
877.184	-3.11
877.352	16.56
877.521	11.71
877.689	6.8
877.857	5.7
878.026	-2.78
878.194	9.52
878.362	10.77
878.531	3.42
878.699	12.16
878.867	0.53
879.036	5.14
879.204	24.69
879.372	14.27
879.54	5.96
879.708	11.07
879.877	5.33
880.045	-4.81
880.213	6.64
880.381	16.28
880.549	21.66
880.717	2.96
880.885	19.73
881.054	6.5
881.222	17.09
881.39	12.55
881.558	21.58
881.726	2.9
881.894	8.79
882.062	8.53
882.23	0
882.398	-0.32
882.566	5.48
882.734	12.56
882.902	14.72
883.07	-4.68
883.238	3.01
883.406	0.93
883.574	-11.25
883.741	11.13
883.909	10.02
884.077	5.62
884.245	12.69
884.413	-3.37
884.581	19.35
884.749	-0.33
884.916	10.41
885.084	13.3
885.252	5.53
885.42	8.61
885.587	26.99
885.755	17.57
885.923	7.14
886.091	11.35
886.258	15.82
886.426	11.62
886.594	-0.62
886.761	14.56
886.929	9.74
887.097	8.98
887.264	13.15
887.432	8.52
887.6	0
887.767	10.42
887.935	6.77
888.102	0
888.27	8.99
888.438	12.62
888.605	-6.71
888.773	22.7
888.94	13.48
889.108	-4.13
889.275	6.73
889.443	13.3
889.61	7.85
889.778	10.17
889.945	0.8
890.112	2.45
890.28	11.68
890.447	23.29
890.615	12.37
890.782	22.86
890.949	-0.36
891.117	3.38
891.284	8.82
891.452	-1.61
891.619	4.54
891.786	-4.24
891.953	20.93
892.121	16.4
892.288	13.25
892.455	19.98
892.623	16.08
892.79	25.25
892.957	11.25
893.124	19.59
893.291	0.36
893.459	21.5
893.626	11.25
893.793	0.4
893.96	5.8
894.127	0.34
894.294	10.05
894.461	-0.77
894.629	9.72
894.796	-6.17
894.963	-9.12
895.13	23.49
895.297	4.74
895.464	8.46
895.631	2.54
895.798	24.66
895.965	18.64
896.132	4.05
896.299	17.21
896.466	17.37
896.633	13.7
896.8	5.32
896.967	20.7
897.134	7.36
897.301	0.88
897.467	6.63
897.634	9.96
897.801	11.65
897.968	2.01
898.135	1.17
898.302	0.87
898.469	18.65
898.635	21.67
898.802	17.48
898.969	27.61
899.136	10.87
899.303	7.78
