Data from x0_Transmission_15-15-49-167.txt Node
Date: Thu May 02 15:15:49 EDT 2019
User: dh1006
Spectrometer: USB4E01358
Autoset integration time: false
Trigger mode: 4
Integration Time (sec): 8.000000E-2
Scans to average: 1
Electric dark correction enabled: true
Nonlinearity correction enabled: false
Boxcar width: 0
Stray light correction enabled: false
XAxis mode: Wavelengths
Stop averaging: false
Number of Pixels in Spectrum: 3648
>>>>>Begin Spectral Data<<<<<
176.727	-196.67
176.966	-196.67
177.205	-196.67
177.444	179.21
177.683	-49.13
177.922	94.29
178.161	101.85
178.4	46
178.638	6975
178.877	404.35
179.116	348.42
179.355	-795.45
179.593	-33.86
179.832	64.92
180.071	13.16
180.309	-355.56
180.548	30.99
180.786	-30.22
181.025	-9275
181.263	-65.17
181.502	-24.79
181.74	74.36
181.979	44.76
182.217	-221.97
182.456	100.39
182.694	88.29
182.932	38.57
183.17	17.64
183.409	-137.41
183.647	54.1
183.885	266.32
184.123	108.92
184.361	238.85
184.6	8.12
184.838	4122.22
185.076	-105.36
185.314	-63.83
185.552	67.94
185.79	-105.82
186.028	5.65
186.266	61.68
186.503	142.4
186.741	157.99
186.979	-40.6
187.217	-500
187.455	199.16
187.693	40.49
187.93	46.3
188.168	1043.75
188.406	80.03
188.643	44.94
188.881	-801.45
189.119	219.94
189.356	-524.07
189.594	112.18
189.831	-16.53
190.069	-7.22
190.306	-25.84
190.543	45.68
190.781	173.31
191.018	-3.25
191.256	-180.33
191.493	-159.31
191.73	-54.57
191.967	-430.36
192.205	-114.95
192.442	-43.24
192.679	-4725
192.916	-329.38
193.153	57.14
193.39	-987.5
193.628	256.36
193.865	-97.54
194.102	108.73
194.339	29
194.576	138.27
194.813	40.67
195.049	-183.12
195.286	20
195.523	28.29
195.76	-81.87
195.997	94.09
196.234	68.75
196.47	-35.96
196.707	-150.75
196.944	33.42
197.18	-29.47
197.417	-12.5
197.654	22.97
197.89	69.71
198.127	88.79
198.363	-126.44
198.6	-14.9
198.836	239.56
199.073	51.36
199.309	31.92
199.546	54.84
199.782	-64.62
200.018	-66.67
200.255	78.86
200.491	-1013.95
200.727	115.79
200.963	62.89
201.199	-54.58
201.436	223.03
201.672	-79.01
201.908	83.74
202.144	-34.36
202.38	-103.16
202.616	-64.25
202.852	44.88
203.088	-0.72
203.324	-253.68
203.56	-468.29
203.796	-66.67
204.032	-25.88
204.268	-283.33
204.503	317.58
204.739	146.24
204.975	-27.27
205.211	-37.78
205.446	119.18
205.682	6.37
205.918	-1165.12
206.153	3.77
206.389	150
206.625	117.09
206.86	62.84
207.096	-77.5
207.331	13.66
207.567	-3.76
207.802	-84.35
208.037	166.96
208.273	-29.03
208.508	270.37
208.744	13.16
208.979	14.83
209.214	-9600
209.449	-54.15
209.685	-49.63
209.92	56.07
210.155	100.84
210.39	-9.3
210.625	-128.57
210.86	-39.04
211.095	239.22
211.33	10.71
211.565	17.59
211.8	-216.09
212.035	-360.33
212.27	87.42
212.505	159.22
212.74	87.31
212.975	622.73
213.21	139.49
213.444	-6.08
213.679	-59.87
213.914	25.95
214.149	-28.95
214.383	34.08
214.618	44.92
214.853	-1.48
215.087	73.12
215.322	-25.84
215.556	-62.31
215.791	-137.21
216.025	133.88
216.26	-73.25
216.494	782.43
216.729	125.93
216.963	-9.3
217.197	38.01
217.432	20.61
217.666	625.61
217.9	16.76
218.135	18.09
218.369	4266.67
218.603	227.84
218.837	41.83
219.071	144.92
219.306	68.03
219.54	28.13
219.774	35.19
220.008	196.71
220.242	-392.56
220.476	1794.12
220.71	37.43
220.944	46.42
221.178	-690.24
221.411	46.9
221.645	1.57
221.879	80.8
222.113	-2060
222.347	74.93
222.58	-40.4
222.814	-21.05
223.048	-42.59
223.281	18.64
223.515	408.85
223.749	-191.25
223.982	-20.28
224.216	540
224.449	4.61
224.683	-151.84
224.916	-126.85
225.15	142.56
225.383	72
225.617	-36.31
225.85	60.13
226.083	263.04
226.317	22.36
226.55	3.02
226.783	354.63
227.016	9.53
227.25	874.29
227.483	-337.5
227.716	13.89
227.949	24.66
228.182	-76.27
228.415	-47.47
228.648	-118.12
228.881	78.97
229.114	-16.62
229.347	9.24
229.58	579
229.813	76.61
230.046	-106.06
230.279	-24.87
230.512	21.22
230.745	-49.83
230.977	77.78
231.21	-15.16
231.443	64.43
231.675	122.69
231.908	-958.82
232.141	125.16
232.373	-363.16
232.606	-155.1
232.839	-105.82
233.071	-72.44
233.304	-175
233.536	-718.95
233.769	278.8
234.001	45.81
234.233	378.7
234.466	51.64
234.698	322.06
234.93	-168.28
235.163	67.32
235.395	-227.91
235.627	-130.68
235.86	-801.45
236.092	120.3
236.324	54.59
236.556	16.19
236.788	-32.73
237.02	93.24
237.252	52.82
237.484	130.72
237.716	-1193.33
237.948	-10.89
238.18	187.6
238.412	55.28
238.644	119.53
238.876	-134.37
239.108	-26.9
239.34	288.52
239.571	-78.07
239.803	21.13
240.035	280
240.267	65.66
240.498	-6133.33
240.73	373.77
240.962	68.34
241.193	86.64
241.425	53.67
241.656	-60.43
241.888	36.96
242.119	16.27
242.351	-1769.77
242.582	297.17
242.814	47.93
243.045	10.07
243.277	-111.94
243.508	764.86
243.739	176.3
243.971	50.64
244.202	28.47
244.433	-101.73
244.664	48.73
244.896	63.61
245.127	-20.12
245.358	-430.36
245.589	-64.16
245.82	189.34
246.051	-42.38
246.282	30.47
246.513	-47.19
246.744	46.88
246.975	435.37
247.206	62.05
247.437	30.99
247.668	-524.07
247.899	95.05
248.129	36.25
248.36	-73.67
248.591	7.17
248.822	71.81
249.052	-189.55
249.283	21.74
249.514	17.71
249.744	3.92
249.975	-10.44
250.206	1.57
250.436	-136.47
250.667	453.96
250.897	-12.16
251.128	-31.17
251.358	431.08
251.589	218.61
251.819	75.71
252.049	53.79
252.28	29.45
252.51	-39.19
252.74	-92.41
252.971	-3425
253.201	-17.25
253.431	-22.67
253.661	-58.49
253.891	-12.5
254.121	-19.82
254.352	-14.67
254.582	1282.86
254.812	17.93
255.042	-88.44
255.272	-29.13
255.502	58.15
255.732	2388.89
255.962	522.95
256.192	-13.76
256.421	23.43
256.651	-147.31
256.881	-89.78
257.111	73.28
257.341	25.4
257.57	50.36
257.8	-7.03
258.03	114.22
258.259	27.96
258.489	7.16
258.719	-67.51
258.948	-39.33
259.178	100.46
259.407	236.28
259.637	1.43
259.866	60.63
260.096	-173.37
260.325	101.16
260.555	210.08
260.784	-3.82
261.013	-12.5
261.243	20.48
261.472	-43.24
261.701	60.44
261.931	-125.76
262.16	157.56
262.389	24.62
262.618	-165.15
262.847	14.26
263.076	45.34
263.305	8.4
263.535	-138.21
263.764	28.04
263.993	13.46
264.222	70.07
264.451	-7.58
264.679	39.65
264.908	18.24
265.137	-2.91
265.366	29.94
265.595	-74.27
265.824	90.37
266.053	37.68
266.281	-319.65
266.51	-100.76
266.739	17.94
266.967	9.06
267.196	-500
267.425	140.1
267.653	-6.3
267.882	-79.41
268.11	119.05
268.339	-34.93
268.567	119.34
268.796	-52.1
269.024	637.5
269.253	-66.67
269.481	100.32
269.709	60.18
269.938	-28.65
270.166	39.02
270.394	-172.04
270.623	13.37
270.851	1.75
271.079	-94.84
271.307	30.93
271.535	133.04
271.764	3.3
271.992	389.72
272.22	-33.49
272.448	-21.05
272.676	39.77
272.904	-20.34
273.132	58.05
273.36	9.24
273.588	105.07
273.816	-24.91
274.043	7.39
274.271	135.93
274.499	83.56
274.727	-150.93
274.955	56.62
275.182	-17.41
275.41	-171.51
275.638	171.12
275.866	556.25
276.093	-108.48
276.321	21.23
276.548	56.88
276.776	35.29
277.003	115.97
277.231	577.14
277.458	-66.67
277.686	-45
277.913	-166.87
278.141	85.55
278.368	46
278.595	-24.9
278.823	-182.93
279.05	25.63
279.277	-26.77
279.505	37.93
279.732	-318.73
279.959	540
280.186	-4.91
280.413	22.32
280.641	101.16
280.868	71.69
281.095	-221.43
281.322	323.33
281.549	-9.24
281.776	46
282.003	11.61
282.23	-87.59
282.457	39.11
282.683	25.94
282.91	125.63
283.137	50.57
283.364	3163.64
283.591	-237.82
283.818	-6350
284.044	-197.67
284.271	65.8
284.498	96.37
284.724	14
284.951	7.52
285.178	45.94
285.404	6.37
285.631	37.82
285.857	-48.61
286.084	-101.42
286.31	10.55
286.537	-52.66
286.763	0.7
286.99	40.29
287.216	-933.33
287.442	-252.38
287.669	-28.9
287.895	18.44
288.121	248.2
288.347	100.84
288.574	29.23
288.8	-23.52
289.026	85.98
289.252	-122.44
289.478	33.58
289.704	17.29
289.931	61.36
290.157	-37.62
290.383	6.17
290.609	81.01
290.835	36.91
291.06	-54.57
291.286	4.99
291.512	289.02
291.738	170.97
291.964	46.54
292.19	-95.8
292.416	-276.34
292.641	94.1
292.867	11.06
293.093	2025.71
293.319	64.75
293.544	-179.92
293.77	-199.46
293.995	248.85
294.221	-26.43
294.447	37.43
294.672	68.07
294.898	45.65
295.123	-14.97
295.349	-22.78
295.574	-103.66
295.799	31.41
296.025	-40.5
296.25	20.55
296.476	384
296.701	31.33
296.926	-22.55
297.151	-307.95
297.377	-908.57
297.602	-109.18
297.827	-12.79
298.052	3.75
298.277	49.65
298.502	25.8
298.727	73.23
298.953	-8.06
299.178	9.58
299.403	68.34
299.628	72.85
299.852	57.14
300.077	723.53
300.302	-16.22
300.527	-113.96
300.752	15.59
300.977	475
301.202	863.93
301.426	-192.91
301.651	32.38
301.876	-93.75
302.101	-90.84
302.325	17.82
302.55	58.48
302.775	15.76
302.999	44.01
303.224	-14.76
303.448	-3.77
303.673	-415.74
303.897	31.92
304.122	41.44
304.346	82.76
304.571	-40.03
304.795	348.98
305.019	16.11
305.244	79.5
305.468	431.08
305.692	20
305.917	-70.25
306.141	38.01
306.365	800
306.589	7.62
306.813	52.41
307.038	-32.62
307.262	1.98
307.486	146.9
307.71	3075
307.934	79.71
308.158	71.1
308.382	-54.04
308.606	-122.06
308.83	-40.5
309.054	-193.78
309.278	65.13
309.502	75.38
309.725	33.53
309.949	48.19
310.173	31.7
310.397	20.3
310.62	120.9
310.844	-68.23
311.068	-118.12
311.292	51.36
311.515	3.55
311.739	1314.58
311.962	67.61
312.186	11.43
312.41	-6.46
312.633	-40.04
312.857	92.58
313.08	-391.67
313.303	-42.8
313.527	31.7
313.75	10.56
313.974	22.91
314.197	16.25
314.42	154.5
314.644	-27.51
314.867	-91.55
315.09	45.16
315.313	17.55
315.536	13.16
315.76	-24.83
315.983	-33.66
316.206	60.18
316.429	20
316.652	-89.78
316.875	42.9
317.098	5.56
317.321	42.94
317.544	353.13
317.767	38.99
317.99	-55.66
318.213	-5.97
318.436	-35.13
318.658	-57.01
318.881	-62.08
319.104	-4.76
319.327	-11.01
319.55	188.84
319.772	170.61
319.995	1276.67
320.218	34.79
320.44	191.27
320.663	-14.97
320.885	-8.38
321.108	28.71
321.331	-54.79
321.553	-2.22
321.776	1125
321.998	49.81
322.22	-58.17
322.443	61.36
322.665	-101.33
322.888	38.74
323.11	123.45
323.332	2.42
323.555	194.61
323.777	-43.86
323.999	-58.83
324.221	92.37
324.443	55.86
324.666	-38.94
324.888	68.15
325.11	-113.22
325.332	-173.37
325.554	-83.02
325.776	39.88
325.998	-1195.35
326.22	-10.14
326.442	4.03
326.664	-19.68
326.886	-89.15
327.108	55.86
327.33	20
327.551	13.03
327.773	-36.46
327.995	-10.31
328.217	-2.73
328.439	11.48
328.66	45.22
328.882	112.4
329.104	196.43
329.325	35.98
329.547	47.16
329.769	14.85
329.99	73.44
330.212	224.59
330.433	-13.41
330.655	25.27
330.876	71.74
331.098	693.44
331.319	22.77
331.54	-26.29
331.762	16.9
331.983	37.75
332.204	-71.52
332.426	104.12
332.647	-69.1
332.868	37.44
333.089	33.45
333.311	-25.72
333.532	-55.15
333.753	-1496.67
333.974	-48.82
334.195	-44.29
334.416	25.3
334.637	-192.47
334.858	37.43
335.079	-38.16
335.3	-35.88
335.521	3.02
335.742	121.74
335.963	-41.03
336.184	16.4
336.405	14.64
336.626	24.36
336.846	55.38
337.067	91.19
337.288	43.82
337.509	-2190
337.729	68.75
337.95	-1225.58
338.171	-114.57
338.391	46.62
338.612	61.6
338.833	1125
339.053	-96.96
339.274	47.37
339.494	31.82
339.715	294.44
339.935	96.52
340.156	70.13
340.376	-18.44
340.596	-55.66
340.817	985.71
341.037	121.2
341.257	-29.03
341.478	45.39
341.698	100.54
341.918	-12.5
342.138	-53.44
342.359	-59.68
342.579	-36.13
342.799	-106.06
343.019	5.2
343.239	10.16
343.459	34.32
343.679	69.71
343.899	32.84
344.119	-4.35
344.339	-43.35
344.559	-5.68
344.779	216.97
344.999	-81.98
345.219	6.8
345.439	-1.84
345.658	7444.44
345.878	177.08
346.098	-18.52
346.318	-18.07
346.537	1509.09
346.757	117.05
346.977	113.01
347.196	54.73
347.416	85
347.636	38.01
347.855	182.77
348.075	-12.5
348.294	-77.5
348.514	162.04
348.733	-1.27
348.953	-390.53
349.172	-95.56
349.392	8.4
349.611	41.36
349.83	-19.57
350.05	-62.41
350.269	-28.61
350.488	-15.32
350.707	575.86
350.927	-10.75
351.146	18.27
351.365	-20.54
351.584	66.29
351.803	22.11
352.023	16.49
352.242	81.11
352.461	54.67
352.68	28.29
352.899	-16.32
353.118	-128.57
353.337	61.36
353.556	-40.06
353.775	46.18
353.993	-71.07
354.212	13.42
354.431	-3.16
354.65	35.23
354.869	4.85
355.088	18.4
355.306	114.19
355.525	-18.82
355.744	-68.35
355.962	-38.71
356.181	237.84
356.4	-81.87
356.618	-15.93
356.837	-28.17
357.055	-100.41
357.274	41.15
357.492	-126.85
357.711	53.28
357.929	-22.76
358.148	-355.56
358.366	62.57
358.585	-76.4
358.803	-169.64
359.021	638.94
359.24	-23.33
359.458	-115.16
359.676	56.06
359.894	27.15
360.113	74.46
360.331	34.86
360.549	1542.86
360.767	9.85
360.985	111.19
361.203	-18.7
361.421	15.07
361.639	-45
361.857	21.86
362.075	-6.46
362.293	37.21
362.511	-207.91
362.729	-47.83
362.947	-60.33
363.165	-199.38
363.383	8.36
363.601	39.5
363.819	47.72
364.036	-65.2
364.254	196.19
364.472	-36.85
364.689	89.58
364.907	-4.76
365.125	60.63
365.342	-169.36
365.56	107.12
365.778	-31.15
365.995	-402.5
366.213	24.19
366.43	85.5
366.648	-77.95
366.865	54.41
367.083	51.87
367.3	-140.53
367.517	125.38
367.735	77.41
367.952	-34.24
368.17	32.71
368.387	28.23
368.604	28.86
368.821	163.45
369.039	50.41
369.256	35.29
369.473	45.52
369.69	-78.07
369.907	1125
370.124	2277.27
370.341	207.35
370.558	38.76
370.776	4.21
370.993	65.72
371.21	-108.17
371.426	4.26
371.643	-0.81
371.86	18.47
372.077	6.55
372.294	-10.84
372.511	-57.31
372.728	10.64
372.945	46.76
373.161	-1.8
373.378	58.77
373.595	-4.12
373.811	-5.38
374.028	-20.67
374.245	7.65
374.461	-51.58
374.678	43.04
374.895	-50.74
375.111	17.8
375.328	30.41
375.544	922.97
375.761	71.81
375.977	30.56
376.194	-10.84
376.41	-104.68
376.626	13.02
376.843	-10.43
377.059	11.54
377.275	-24.93
377.492	33.81
377.708	27.58
377.924	4.45
378.14	10.44
378.357	63.62
378.573	-26.9
378.789	18.12
379.005	56.22
379.221	-39.09
379.437	-31.11
379.653	-11.04
379.869	33.36
380.085	5.68
380.301	0.52
380.517	-24.94
380.733	3.52
380.949	-18.07
381.165	-14.73
381.381	7.28
381.597	7.53
381.813	24.39
382.028	12.59
382.244	6.83
382.46	85.53
382.676	-1.7
382.891	-60.59
383.107	20.3
383.323	-37.39
383.538	-58.83
383.754	-4.58
383.969	4.08
384.185	7.55
384.4	22.28
384.616	-30.08
384.831	33.77
385.047	-96.86
385.262	8.82
385.478	40.58
385.693	19.68
385.909	16.41
386.124	23.45
386.339	18.99
386.554	3.59
386.77	12.04
386.985	-19.69
387.2	-3.32
387.415	87.9
387.631	13.21
387.846	22.47
388.061	16.16
388.276	-71.76
388.491	14.71
388.706	-32.11
388.921	20.48
389.136	37.15
389.351	31.58
389.566	9.06
389.781	18.24
389.996	34.36
390.211	31
390.426	5.91
390.641	-4.71
390.855	-39.62
391.07	16.89
391.285	0.74
391.5	-5.26
391.714	8.88
391.929	24.45
392.144	22.13
392.358	-11.32
392.573	-17.36
392.788	-21.86
393.002	44.04
393.217	7.21
393.431	23.25
393.646	18.52
393.86	-12.58
394.075	2.21
394.289	2.93
394.504	3.43
394.718	3.16
394.933	4.75
395.147	17.85
395.361	16.07
395.576	36.57
395.79	-3.71
396.004	9.12
396.218	-8.71
396.432	-5.26
396.647	26.82
396.861	22.49
397.075	21.31
397.289	11.49
397.503	18.12
397.717	3.14
397.931	0.57
398.145	-5.59
398.359	21.64
398.573	6.28
398.787	13.9
399.001	5.77
399.215	30.09
399.429	13.78
399.643	4.71
399.857	13.69
400.07	8.8
400.284	11.46
400.498	7.35
400.712	19.44
400.925	22.07
401.139	-0.91
401.353	2.96
401.566	25.42
401.78	24.03
401.994	6.6
402.207	12.97
402.421	16.21
402.634	5.13
402.848	17.76
403.061	10.71
403.275	9.9
403.488	15.84
403.702	17.54
403.915	22.09
404.128	13.16
404.342	11.47
404.555	4.66
404.768	14.43
404.982	16.59
405.195	10.3
405.408	10.27
405.621	20.68
405.835	14.63
406.048	17.29
406.261	17.74
406.474	18.14
406.687	6.66
406.9	15.66
407.113	10.31
407.326	13.75
407.539	14.74
407.752	19
407.965	17.59
408.178	15.41
408.391	15.51
408.604	18.36
408.817	9.18
409.029	13.78
409.242	14.91
409.455	12.46
409.668	14.19
409.881	12.07
410.093	20.25
410.306	13.96
410.519	12.79
410.731	11.45
410.944	12.32
411.157	13.83
411.369	13.63
411.582	14
411.794	12.52
412.007	12.21
412.219	16.94
412.432	17.2
412.644	15.26
412.857	13.51
413.069	15.45
413.281	14.46
413.494	16.62
413.706	14.87
413.918	14.47
414.131	14.81
414.343	12.07
414.555	15.15
414.767	14.66
414.979	15.52
415.192	12.57
415.404	12.42
415.616	13.48
415.828	15.53
416.04	10.11
416.252	13.82
416.464	11.06
416.676	12.9
416.888	14.11
417.1	10.31
417.312	14.76
417.524	12.99
417.736	12.14
417.948	10.47
418.159	11.02
418.371	13.2
418.583	12.26
418.795	14.86
419.007	8.91
419.218	10.11
419.43	12.21
419.642	10.82
419.853	6.36
420.065	10.37
420.276	12.16
420.488	10.89
420.7	10.25
420.911	12.83
421.123	11.28
421.334	10.74
421.546	10.25
421.757	8.62
421.969	11.09
422.18	8.37
422.391	9.35
422.603	4.7
422.814	9.27
423.025	8.28
423.237	9.81
423.448	9.62
423.659	10.34
423.87	5.19
424.082	10.2
424.293	6.82
424.504	11.86
424.715	10.45
424.926	8.56
425.137	7.1
425.348	8.5
425.559	9.39
425.77	10.12
425.981	8.36
426.192	8.06
426.403	9.43
426.614	4.49
426.825	7.58
427.036	9.11
427.247	4.96
427.458	9.37
427.668	6.01
427.879	7.08
428.09	8
428.301	5.73
428.511	4.88
428.722	5.9
428.933	5.22
429.143	3.38
429.354	6.15
429.565	4.87
429.775	3.07
429.986	4.75
430.196	4.59
430.407	3.66
430.617	3.67
430.828	2.88
431.038	5.38
431.249	3.88
431.459	6.96
431.669	4.63
431.88	8.27
432.09	6.45
432.3	4.26
432.511	5.33
432.721	4.44
432.931	4.98
433.141	1.85
433.351	4.46
433.562	3.65
433.772	4.54
433.982	5.58
434.192	8.04
434.402	3
434.612	3.29
434.822	3.75
435.032	4.62
435.242	5.78
435.452	3.32
435.662	3.97
435.872	4.05
436.082	2.56
436.292	3.95
436.502	4.44
436.711	2.86
436.921	2.68
437.131	4.36
437.341	0.8
437.551	4.25
437.76	5.05
437.97	4.15
438.18	3.2
438.389	5.31
438.599	2.72
438.808	2.37
439.018	3.74
439.228	3.7
439.437	3.38
439.647	2.65
439.856	3.86
440.066	2.29
440.275	3.44
440.484	5.83
440.694	2.58
440.903	4.35
441.113	3.38
441.322	5.67
441.531	3.28
441.741	0.95
441.95	6.18
442.159	2.89
442.368	4.84
442.577	2.6
442.787	3.87
442.996	3.05
443.205	-0.48
443.414	1.87
443.623	5.28
443.832	3.67
444.041	2.29
444.25	4.64
444.459	4.93
444.668	2.38
444.877	3.75
445.086	3.52
445.295	3.23
445.504	4.21
445.713	4.87
445.922	1.69
446.13	1.82
446.339	1.04
446.548	0.31
446.757	5.38
446.965	-2.72
447.174	1.84
447.383	3.45
447.591	0.57
447.8	2.76
448.009	2.73
448.217	3.03
448.426	1.53
448.634	2.4
448.843	-2.23
449.051	3.79
449.26	2.01
449.468	6.57
449.677	3.95
449.885	0.38
450.093	2.92
450.302	3.63
450.51	4.16
450.719	1.61
450.927	-0.76
451.135	3.15
451.343	-0.62
451.552	5.89
451.76	3.52
451.968	2.7
452.176	3.37
452.384	2
452.592	0.93
452.8	3.07
453.009	0.82
453.217	1.95
453.425	1.71
453.633	2.96
453.841	3.57
454.049	1.51
454.257	3.03
454.464	5.45
454.672	2.39
454.88	3.42
455.088	0.23
455.296	3.72
455.504	5.87
455.711	0.75
455.919	2.34
456.127	1.61
456.335	5.04
456.542	3.27
456.75	1.01
456.958	2.49
457.165	3.09
457.373	0.23
457.581	-1.75
457.788	-1.09
457.996	2.16
458.203	-0.51
458.411	5.77
458.618	1.91
458.826	3.84
459.033	2.97
459.24	1.49
459.448	2.5
459.655	2.4
459.863	2.76
460.07	3.42
460.277	-0.44
460.484	2.19
460.692	4.44
460.899	-0.09
461.106	2.46
461.313	3.76
461.52	2.17
461.728	1.67
461.935	2.37
462.142	0.89
462.349	3.93
462.556	2.2
462.763	1.79
462.97	1.32
463.177	6.01
463.384	0.63
463.591	1.25
463.798	1.66
464.005	2.22
464.212	1.48
464.418	4.95
464.625	3.49
464.832	1.79
465.039	-1.12
465.246	0.93
465.452	3.25
465.659	4.03
465.866	1.26
466.072	1.83
466.279	2.37
466.486	1.88
466.692	3.49
466.899	1.17
467.105	1.87
467.312	2.38
467.519	4.37
467.725	0.59
467.931	1.73
468.138	2.04
468.344	3.32
468.551	-0.68
468.757	1.77
468.964	4.52
469.17	2.27
469.376	1.49
469.583	1.4
469.789	2.8
469.995	-0.71
470.201	4.5
470.408	2.43
470.614	1.23
470.82	0.53
471.026	0.69
471.232	-0.64
471.438	2.95
471.644	2.09
471.85	3.7
472.056	0.91
472.262	5.13
472.468	3.24
472.674	1.41
472.88	5.02
473.086	1.53
473.292	3.41
473.498	1.81
473.704	2.9
473.91	4.07
474.116	1.99
474.321	1.93
474.527	0.25
474.733	2
474.939	0.94
475.144	4.13
475.35	1.54
475.556	1.5
475.761	-0.44
475.967	3.17
476.173	2.4
476.378	3.66
476.584	2.54
476.789	3.18
476.995	3.72
477.2	3.67
477.406	1.8
477.611	1.4
477.817	2.53
478.022	1.34
478.227	1.95
478.433	1.68
478.638	2.48
478.843	2.41
479.049	2.71
479.254	2.27
479.459	0.71
479.664	2.48
479.87	3.95
480.075	3.38
480.28	3.4
480.485	4.05
480.69	2.85
480.895	2.23
481.1	2.88
481.306	3.01
481.511	2.13
481.716	2.14
481.921	1.84
482.126	3.36
482.33	1.25
482.535	3.48
482.74	2.14
482.945	3.55
483.15	2.4
483.355	2.92
483.56	2.14
483.765	0.82
483.969	2.89
484.174	3.29
484.379	2.26
484.583	3.29
484.788	2.91
484.993	2.26
485.197	4.5
485.402	2.53
485.607	3.26
485.811	2.83
486.016	4.14
486.22	4.55
486.425	2.57
486.629	3.22
486.834	3.8
487.038	4.06
487.243	3.25
487.447	1.82
487.652	2.66
487.856	4.64
488.06	3.44
488.265	3.06
488.469	3.68
488.673	3.71
488.877	3.88
489.082	4.83
489.286	4.75
489.49	3.29
489.694	3.03
489.898	3.74
490.102	3.56
490.307	3.48
490.511	3.37
490.715	3.41
490.919	2.91
491.123	3.35
491.327	4.56
491.531	3.01
491.735	4.73
491.939	3.34
492.143	3.5
492.346	4.31
492.55	3.91
492.754	4.04
492.958	5.08
493.162	3.64
493.366	3.6
493.569	4.3
493.773	5.36
493.977	4.79
494.18	4.77
494.384	4.06
494.588	5.62
494.791	3.88
494.995	5.3
495.199	5
495.402	5.49
495.606	4.61
495.809	6.57
496.013	4.49
496.216	5.51
496.42	3.8
496.623	4.42
496.827	5.97
497.03	5.41
497.233	6.18
497.437	6.28
497.64	4.41
497.843	5.36
498.047	5.87
498.25	6.21
498.453	7.5
498.656	6.13
498.86	6.77
499.063	6.82
499.266	5.84
499.469	7.32
499.672	6.69
499.875	7.79
500.078	6.32
500.281	6.97
500.484	7.55
500.687	6.54
500.89	7.63
501.093	7.22
501.296	8.54
501.499	7.41
501.702	8.52
501.905	8.7
502.108	8.88
502.311	8.89
502.514	8.65
502.716	9.88
502.919	9.39
503.122	8.15
503.325	9.52
503.527	9.33
503.73	10.11
503.933	9.46
504.135	9.88
504.338	10.03
504.541	9.82
504.743	10.71
504.946	11.12
505.148	10.41
505.351	11.39
505.553	10.99
505.756	11.5
505.958	11.94
506.161	12.45
506.363	11.99
506.565	12.27
506.768	11.94
506.97	12.06
507.172	11.92
507.375	12.4
507.577	11.91
507.779	12.85
507.982	12.76
508.184	12.53
508.386	13.29
508.588	13.95
508.79	13.45
508.993	14.41
509.195	14.52
509.397	14.46
509.599	14.06
509.801	13.26
510.003	14.53
510.205	14.65
510.407	15.2
510.609	14.71
510.811	14.85
511.013	14.93
511.215	14.01
511.417	14.86
511.618	15.39
511.82	15.89
512.022	15.36
512.224	15.9
512.426	15.12
512.627	15.47
512.829	14.65
513.031	15.3
513.233	16.21
513.434	15.63
513.636	15.57
513.838	15.56
514.039	15.45
514.241	15.21
514.442	16.78
514.644	15.83
514.845	16.11
515.047	15.23
515.248	15.01
515.45	15.48
515.651	14.51
515.853	15.21
516.054	14.71
516.256	14.65
516.457	15.08
516.658	14.3
516.86	13.49
517.061	14.51
517.262	13.76
517.463	13.63
517.665	13.5
517.866	13.97
518.067	14.38
518.268	14.31
518.469	14.06
518.67	13.59
518.872	12.58
519.073	14.03
519.274	12.86
519.475	12.56
519.676	12.65
519.877	12.4
520.078	12.2
520.279	11.75
520.48	11.43
520.681	11.53
520.881	11.53
521.082	11.75
521.283	11.81
521.484	11.13
521.685	11.37
521.886	11.82
522.086	11.07
522.287	10.96
522.488	10.95
522.689	10.48
522.889	10.3
523.09	9.89
523.291	10.17
523.491	9.28
523.692	10.25
523.892	9.65
524.093	10.1
524.294	9.1
524.494	8.86
524.695	8.89
524.895	8.69
525.096	8.85
525.296	8.73
525.496	8.77
525.697	8.54
525.897	8.32
526.098	8.05
526.298	7.88
526.498	8.11
526.699	8.07
526.899	7.7
527.099	7.15
527.299	7.29
527.499	7
527.7	7.38
527.9	7.13
528.1	6.87
528.3	6.89
528.5	7.05
528.7	7.06
528.9	6.22
529.1	6.33
529.3	6.34
529.5	6.33
529.7	6.08
529.9	6.12
530.1	6.3
530.3	6.07
530.5	6.18
530.7	6.07
530.9	6
531.1	6.13
531.3	5.77
531.499	5.43
531.699	5.39
531.899	5.11
532.099	5.31
532.298	5.52
532.498	5.16
532.698	5.64
532.897	4.94
533.097	5
533.297	4.99
533.496	4.96
533.696	5.03
533.895	4.75
534.095	4.57
534.294	4.39
534.494	3.98
534.693	4.38
534.893	4.98
535.092	4
535.292	4.55
535.491	4.27
535.69	3.75
535.89	3.63
536.089	4.17
536.288	3.47
536.488	3.43
536.687	4.2
536.886	3.55
537.085	4.36
537.285	3.83
537.484	3.65
537.683	3.46
537.882	3.77
538.081	3.78
538.28	3.33
538.479	3.5
538.678	3.16
538.877	3.47
539.076	3.8
539.275	3.3
539.474	3.52
539.673	3.33
539.872	3.12
540.071	3.74
540.27	3.67
540.469	3.36
540.668	3.4
540.867	3.55
541.065	3.37
541.264	3.04
541.463	3.12
541.662	2.75
541.861	2.95
542.059	2.87
542.258	3.04
542.457	3.39
542.655	2.72
542.854	2.76
543.052	2.72
543.251	2.67
543.45	2.83
543.648	2.76
543.847	3.05
544.045	2.57
544.244	2.67
544.442	2.88
544.641	2.44
544.839	2.6
545.037	2.71
545.236	2.42
545.434	2.99
545.632	2.75
545.831	2.96
546.029	2.37
546.227	2.53
546.426	2.21
546.624	2.41
546.822	2.58
547.02	2.22
547.218	2.27
547.417	2.24
547.615	2.34
547.813	2.63
548.011	2.43
548.209	2.6
548.407	2.69
548.605	2.42
548.803	2.25
549.001	2.62
549.199	2.26
549.397	2.44
549.595	2.41
549.793	2.33
549.991	2.33
550.189	2.48
550.387	2.26
550.584	2.17
550.782	2.07
550.98	2.21
551.178	2.4
551.376	2.13
551.573	1.63
551.771	2.25
551.969	2.29
552.166	1.81
552.364	2.12
552.562	2.07
552.759	2.24
552.957	1.81
553.154	1.84
553.352	1.89
553.55	1.9
553.747	2.1
553.945	2.05
554.142	1.9
554.339	1.92
554.537	2.17
554.734	1.9
554.932	1.93
555.129	1.98
555.326	1.94
555.524	2.14
555.721	1.92
555.918	1.9
556.116	1.47
556.313	2.14
556.51	1.79
556.707	2.15
556.904	1.71
557.102	1.59
557.299	1.89
557.496	1.72
557.693	2.14
557.89	1.87
558.087	1.81
558.284	1.86
558.481	2.1
558.678	1.53
558.875	1.83
559.072	1.69
559.269	1.83
559.466	1.73
559.663	1.56
559.86	1.68
560.057	1.85
560.254	1.56
560.45	1.78
560.647	1.52
560.844	1.68
561.041	2
561.237	1.64
561.434	1.65
561.631	1.88
561.828	1.67
562.024	1.36
562.221	1.37
562.418	1.91
562.614	1.54
562.811	1.63
563.007	1.54
563.204	1.59
563.4	1.77
563.597	1.83
563.793	1.54
563.99	1.58
564.186	1.65
564.383	1.79
564.579	1.76
564.775	1.62
564.972	1.7
565.168	1.54
565.365	1.57
565.561	1.76
565.757	1.56
565.953	1.75
566.15	1.86
566.346	1.57
566.542	1.76
566.738	1.7
566.934	1.52
567.131	1.69
567.327	1.71
567.523	1.36
567.719	1.45
567.915	1.7
568.111	1.59
568.307	1.84
568.503	1.53
568.699	1.45
568.895	1.66
569.091	1.63
569.287	1.95
569.483	1.61
569.679	1.58
569.875	1.6
570.07	1.89
570.266	1.86
570.462	1.57
570.658	1.48
570.854	1.47
571.049	1.33
571.245	1.47
571.441	1.64
571.636	1.29
571.832	1.5
572.028	1.64
572.223	1.61
572.419	1.4
572.615	1.59
572.81	1.81
573.006	1.48
573.201	1.39
573.397	1.42
573.592	1.4
573.788	1.31
573.983	1.21
574.179	1.52
574.374	1.39
574.569	1.62
574.765	1.57
574.96	1.26
575.156	1.54
575.351	1.41
575.546	1.64
575.741	1.58
575.937	1.57
576.132	1.46
576.327	1.6
576.522	1.57
576.718	1.47
576.913	1.56
577.108	1.64
577.303	1.69
577.498	1.47
577.693	1.57
577.888	1.61
578.083	1.54
578.278	1.39
578.473	1.52
578.668	1.57
578.863	1.43
579.058	1.52
579.253	1.46
579.448	1.33
579.643	1.46
579.838	1.45
580.033	1.47
580.227	1.57
580.422	1.61
580.617	1.4
580.812	1.55
581.006	1.29
581.201	1.65
581.396	1.16
581.591	1.45
581.785	1.48
581.98	1.67
582.175	1.68
582.369	1.57
582.564	1.57
582.758	1.61
582.953	1.7
583.147	1.32
583.342	1.73
583.536	1.5
583.731	1.62
583.925	1.64
584.12	1.62
584.314	1.46
584.509	1.26
584.703	1.54
584.897	1.53
585.092	1.51
585.286	1.67
585.48	1.34
585.674	1.65
585.869	1.64
586.063	1.58
586.257	1.37
586.451	1.49
586.646	1.59
586.84	1.52
587.034	1.56
587.228	1.3
587.422	1.61
587.616	1.41
587.81	1.6
588.004	1.53
588.198	1.47
588.392	1.47
588.586	1.75
588.78	1.67
588.974	1.3
589.168	1.79
589.362	1.57
589.556	1.39
589.75	1.62
589.944	1.44
590.137	1.63
590.331	1.68
590.525	1.78
590.719	1.72
590.913	1.66
591.106	1.56
591.3	1.58
591.494	1.82
591.687	1.65
591.881	1.67
592.075	1.75
592.268	1.43
592.462	1.44
592.655	1.29
592.849	1.57
593.043	1.74
593.236	1.76
593.43	1.49
593.623	1.26
593.817	1.54
594.01	1.33
594.203	1.65
594.397	1.27
594.59	1.76
594.784	1.6
594.977	1.56
595.17	1.56
595.364	1.42
595.557	1.64
595.75	1.57
595.943	1.6
596.137	1.82
596.33	1.56
596.523	1.9
596.716	1.8
596.909	1.85
597.102	1.75
597.296	1.89
597.489	1.73
597.682	1.73
597.875	1.71
598.068	1.58
598.261	1.72
598.454	1.79
598.647	1.48
598.84	1.64
599.033	1.61
599.226	1.63
599.419	1.78
599.611	1.61
599.804	1.55
599.997	1.74
600.19	1.73
600.383	1.64
600.576	1.87
600.768	1.5
600.961	1.61
601.154	1.58
601.347	1.81
601.539	1.84
601.732	1.75
601.925	1.92
602.117	1.74
602.31	1.69
602.502	1.64
602.695	1.69
602.888	1.67
603.08	1.65
603.273	1.66
603.465	1.86
603.658	1.85
603.85	1.88
604.043	1.83
604.235	1.85
604.427	1.49
604.62	1.72
604.812	1.73
605.004	1.95
605.197	1.62
605.389	1.76
605.581	1.78
605.774	1.74
605.966	2.02
606.158	1.8
606.35	1.96
606.543	2.02
606.735	2.01
606.927	1.87
607.119	2.06
607.311	1.89
607.503	1.91
607.695	1.98
607.887	1.92
608.079	2.06
608.271	1.97
608.463	1.87
608.655	1.84
608.847	2.17
609.039	2.06
609.231	2.02
609.423	1.7
609.615	2.24
609.807	2.04
609.999	2.1
610.191	2.23
610.382	2.16
610.574	1.93
610.766	2.18
610.958	2.08
611.15	2.01
611.341	2.27
611.533	2.03
611.725	2.12
611.916	2.07
612.108	2.14
612.3	2.08
612.491	2.2
612.683	2
612.874	1.92
613.066	2.18
613.257	2.24
613.449	2.27
613.64	2.09
613.832	2.13
614.023	2.16
614.215	2.36
614.406	2.14
614.598	1.96
614.789	2.21
614.98	2.48
615.172	2.33
615.363	2.33
615.554	2.09
615.746	2.09
615.937	2.24
616.128	2.31
616.319	2.37
616.511	2.17
616.702	2.48
616.893	2.58
617.084	2.35
617.275	2.21
617.466	2.22
617.658	2.34
617.849	2.48
618.04	2.14
618.231	2.32
618.422	2.4
618.613	2.41
618.804	2.5
618.995	2.62
619.186	2.48
619.377	2.25
619.568	2.23
619.758	2.51
619.949	2.51
620.14	2.51
620.331	2.42
620.522	2.46
620.713	2.45
620.903	2.58
621.094	2.4
621.285	2.57
621.476	2.79
621.666	2.66
621.857	2.42
622.048	2.77
622.238	2.66
622.429	2.97
622.62	2.59
622.81	2.87
623.001	2.97
623.191	2.86
623.382	2.85
623.572	2.78
623.763	2.6
623.953	2.94
624.144	2.61
624.334	2.82
624.525	2.82
624.715	2.8
624.905	3.02
625.096	3.01
625.286	2.91
625.477	2.89
625.667	3.07
625.857	2.64
626.047	2.85
626.238	2.98
626.428	2.84
626.618	2.97
626.808	2.76
626.999	2.97
627.189	3.12
627.379	2.65
627.569	3.15
627.759	3.32
627.949	2.93
628.139	2.98
628.329	3.07
628.519	3.3
628.709	3.03
628.899	3.03
629.089	2.86
629.279	3.2
629.469	3.07
629.659	2.98
629.849	3.15
630.039	3.33
630.229	3.43
630.419	3.24
630.609	3.32
630.798	3.48
630.988	3.49
631.178	3.2
631.368	3.19
631.557	3.39
631.747	3.44
631.937	3.3
632.127	3.31
632.316	3.43
632.506	3.44
632.696	3.53
632.885	3.61
633.075	3.35
633.264	3.53
633.454	3.48
633.643	3.56
633.833	3.52
634.022	3.69
634.212	3.68
634.401	3.52
634.591	3.56
634.78	3.68
634.97	3.75
635.159	3.6
635.348	3.66
635.538	3.75
635.727	3.75
635.916	3.83
636.106	4.01
636.295	4.08
636.484	3.5
636.674	4.02
636.863	3.96
637.052	3.64
637.241	3.91
637.43	3.91
637.619	3.81
637.809	4.14
637.998	4.14
638.187	4.16
638.376	4.3
638.565	4.36
638.754	4.41
638.943	4.13
639.132	4.16
639.321	4.24
639.51	4.26
639.699	4.04
639.888	4.15
640.077	4.18
640.266	4.06
640.455	4.53
640.643	4.24
640.832	4.17
641.021	4.27
641.21	4.34
641.399	4.14
641.587	4.49
641.776	4.38
641.965	4.47
642.154	4.6
642.342	4.54
642.531	4.63
642.72	4.55
642.908	4.73
643.097	4.88
643.286	4.96
643.474	4.87
643.663	4.79
643.851	4.59
644.04	4.54
644.228	4.78
644.417	4.95
644.605	4.79
644.794	4.6
644.982	4.83
645.171	5
645.359	5
645.547	5.1
645.736	5.12
645.924	4.69
646.112	5.13
646.301	4.66
646.489	4.9
646.677	4.91
646.866	5.06
647.054	5.01
647.242	5.05
647.43	5.09
647.618	5.44
647.807	5.43
647.995	5.29
648.183	5.1
648.371	5.3
648.559	5.36
648.747	5.44
648.935	5.36
649.123	5.7
649.311	5.72
649.499	5.79
649.687	5.77
649.875	5.56
650.063	5.47
650.251	5.65
650.439	5.88
650.627	5.73
650.815	5.91
651.003	5.65
651.191	5.72
651.378	5.91
651.566	5.97
651.754	5.63
651.942	6.08
652.13	6.18
652.317	6.05
652.505	6.21
652.693	6.04
652.88	6.43
653.068	6.34
653.256	6.25
653.443	6.61
653.631	6.52
653.819	6.37
654.006	6.44
654.194	6.38
654.381	6.19
654.569	6.45
654.756	6.46
654.944	6.63
655.131	6.48
655.319	6.84
655.506	6.59
655.693	6.57
655.881	7.24
656.068	6.75
656.256	7.23
656.443	6.91
656.63	6.81
656.818	7.18
657.005	7.18
657.192	7
657.379	7.13
657.567	7.19
657.754	7.18
657.941	7.35
658.128	7.2
658.315	7.32
658.502	7.49
658.69	7.16
658.877	7.56
659.064	7.43
659.251	7.64
659.438	7.34
659.625	7.53
659.812	7.81
659.999	7.61
660.186	7.93
660.373	7.79
660.56	7.66
660.747	8.21
660.934	8.08
661.121	8.23
661.308	8.04
661.494	7.97
661.681	8.14
661.868	8.08
662.055	8.25
662.242	8.21
662.428	8.25
662.615	8.62
662.802	8.95
662.989	8.97
663.175	9.02
663.362	9.28
663.549	9.2
663.735	9.34
663.922	9.33
664.109	9.15
664.295	8.98
664.482	9.14
664.668	8.81
664.855	8.77
665.041	9.18
665.228	9.11
665.414	9.29
665.601	9.7
665.787	9.62
665.974	9.16
666.16	9.25
666.347	9.26
666.533	9.2
666.719	9.25
666.906	9.3
667.092	9.56
667.278	9.44
667.465	9.45
667.651	9.58
667.837	9.89
668.023	9.82
668.21	9.92
668.396	10.01
668.582	9.77
668.768	9.69
668.954	9.72
669.14	9.96
669.327	10.65
669.513	10.51
669.699	10.29
669.885	10.76
670.071	10.81
670.257	10.7
670.443	10.8
670.629	10.59
670.815	10.89
671.001	10.82
671.187	10.59
671.373	11.16
671.559	10.94
671.744	11.23
671.93	10.84
672.116	11.44
672.302	11.44
672.488	11.45
672.674	11.82
672.859	11.98
673.045	11.65
673.231	11.45
673.417	11.5
673.602	11.3
673.788	11.52
673.974	11.84
674.159	11.59
674.345	11.46
674.531	11.9
674.716	11.78
674.902	12.08
675.087	12.27
675.273	12.07
675.459	12.19
675.644	12.45
675.83	12.57
676.015	12.21
676.2	12.02
676.386	12.12
676.571	12.08
676.757	12.17
676.942	12.43
677.128	12.14
677.313	12.06
677.498	12.22
677.684	12.22
677.869	12.41
678.054	12.95
678.24	12.97
678.425	13.17
678.61	12.64
678.795	13.25
678.98	13.34
679.166	13.32
679.351	13.65
679.536	13.32
679.721	13.53
679.906	13.06
680.091	13.03
680.276	13.36
680.461	13.9
680.647	13.9
680.832	14.19
681.017	13.93
681.202	13.65
681.387	13.84
681.572	13.72
681.756	13.99
681.941	13.9
682.126	13.93
682.311	13.91
682.496	13.78
682.681	14.13
682.866	14.22
683.051	13.87
683.235	14.28
683.42	14.68
683.605	14.34
683.79	14.23
683.974	14.51
684.159	14.4
684.344	14.54
684.529	14.74
684.713	14.45
684.898	14.39
685.083	14.67
685.267	14.72
685.452	14.87
685.636	14.44
685.821	15.04
686.005	15.13
686.19	14.66
686.375	15.74
686.559	15.09
686.744	14.93
686.928	14.69
687.112	14.75
687.297	14.72
687.481	14.21
687.666	14.5
687.85	14.72
688.034	14.74
688.219	15.4
688.403	14.64
688.587	14.93
688.772	15.13
688.956	15.67
689.14	15.04
689.324	15.54
689.509	15.69
689.693	15.47
689.877	15.6
690.061	15.28
690.245	14.86
690.43	15.45
690.614	15.61
690.798	15.05
690.982	15.42
691.166	15.23
691.35	15.64
691.534	15.67
691.718	15.51
691.902	15.69
692.086	15.22
692.27	15.14
692.454	15.4
692.638	15.66
692.822	16.04
693.006	16.29
693.19	16.13
693.373	15.99
693.557	16.17
693.741	16.04
693.925	15.96
694.109	16
694.293	16.2
694.476	15.82
694.66	16.75
694.844	16.03
695.027	16.39
695.211	16.09
695.395	16.66
695.578	16.58
695.762	16.15
695.946	16.63
696.129	16.76
696.313	16.02
696.497	16.52
696.68	16.07
696.864	16.19
697.047	16.54
697.231	16.13
697.414	15.84
697.598	15.81
697.781	15.49
697.965	16.04
698.148	15.68
698.331	15.88
698.515	16.27
698.698	16.01
698.881	16.39
699.065	16.32
699.248	16.52
699.431	16.12
699.615	16.4
699.798	16.61
699.981	16.37
700.165	16.55
700.348	16.13
700.531	16
700.714	15.97
700.897	15.72
701.08	16.22
701.264	16.03
701.447	16.21
701.63	16.38
701.813	16.66
701.996	16.13
702.179	16.41
702.362	16.79
702.545	16.51
702.728	16.8
702.911	16.84
703.094	16.47
703.277	17.04
703.46	17.15
703.643	16.85
703.826	16.95
704.009	16.44
704.191	16.75
704.374	16.83
704.557	16.75
704.74	16.23
704.923	16.06
705.106	15.92
705.288	15.49
705.471	16.06
705.654	15.95
705.837	16.33
706.019	15.92
706.202	16.67
706.385	16.4
706.567	16.32
706.75	16.71
706.932	16.17
707.115	15.79
707.298	15.91
707.48	15.76
707.663	15.63
707.845	15.86
708.028	16.4
708.21	16.55
708.393	16.21
708.575	16.18
708.758	16.26
708.94	16.68
709.123	16.76
709.305	16.61
709.487	16.31
709.67	16.56
709.852	16.67
710.034	16.45
710.217	16.2
710.399	16.09
710.581	16.6
710.764	16.81
710.946	16.61
711.128	15.8
711.31	16.12
711.492	16.3
711.675	16.06
711.857	16.37
712.039	16.34
712.221	15.92
712.403	16.09
712.585	15.7
712.767	16.36
712.949	16.4
713.131	16.44
713.314	16.44
713.496	16.03
713.678	16.01
713.86	16.21
714.041	15.94
714.223	15.97
714.405	16.19
714.587	15.59
714.769	15.53
714.951	15.96
715.133	16.01
715.315	16.44
715.497	16.61
715.678	15.94
715.86	15.66
716.042	16.11
716.224	16.64
716.406	16
716.587	16.22
716.769	16
716.951	16.19
717.132	16.3
717.314	15.7
717.496	15.87
717.677	15.85
717.859	15.81
718.041	15.98
718.222	15.26
718.404	15.4
718.585	15.7
718.767	15.62
718.948	15.67
719.13	15.5
719.311	15.9
719.493	15.78
719.674	16.03
719.856	15.73
720.037	15.81
720.219	15.92
720.4	15.52
720.581	15.7
720.763	16.12
720.944	15.37
721.125	15.48
721.307	15.67
721.488	15.94
721.669	15.12
721.85	15.43
722.032	15.29
722.213	15.46
722.394	15.69
722.575	15.47
722.756	15.02
722.938	15.3
723.119	15.02
723.3	15.46
723.481	15.64
723.662	14.92
723.843	14.99
724.024	15.04
724.205	15.62
724.386	15.7
724.567	15.31
724.748	15.63
724.929	15.73
725.11	15.68
725.291	15.77
725.472	15.42
725.653	16.45
725.834	15.69
726.015	15.25
726.196	15
726.377	15.16
726.557	15.52
726.738	15.67
726.919	15.01
727.1	15.12
727.281	15.52
727.461	15.69
727.642	15.09
727.823	15.5
728.004	15.59
728.184	16.14
728.365	15.8
728.546	15
728.726	15.23
728.907	15.01
729.087	14.88
729.268	15.31
729.449	14.89
729.629	14.93
729.81	15.79
729.99	14.98
730.171	14.43
730.351	14.43
730.532	14.53
730.712	14.58
730.893	14.35
731.073	14.25
731.253	14.09
731.434	14.66
731.614	14.65
731.795	14.68
731.975	14.55
732.155	15.04
732.336	14.58
732.516	15.25
732.696	14.95
732.876	14.81
733.057	14.31
733.237	13.95
733.417	14
733.597	13.99
733.778	14.18
733.958	14.2
734.138	14.53
734.318	14.19
734.498	13.95
734.678	13.57
734.858	14.7
735.038	15.05
735.218	15.19
735.398	14.41
735.579	15.11
735.759	14.86
735.939	13.86
736.119	14.72
736.298	15.15
736.478	14.63
736.658	14.74
736.838	14.73
737.018	15.07
737.198	14.69
737.378	14.44
737.558	14.89
737.738	14.78
737.917	15.29
738.097	14.31
738.277	14.33
738.457	14.63
738.637	14.18
738.816	14.2
738.996	14.15
739.176	14.46
739.355	14.12
739.535	14.26
739.715	14.01
739.894	14.16
740.074	13.95
740.254	14.32
740.433	13.74
740.613	13.46
740.792	14.32
740.972	13.83
741.151	13.72
741.331	13.78
741.51	13.83
741.69	14.4
741.869	14.2
742.049	14.06
742.228	15.27
742.408	14.7
742.587	14.94
742.766	14.47
742.946	14.56
743.125	14.92
743.305	14.29
743.484	14.28
743.663	14.54
743.842	13.98
744.022	14.58
744.201	14.3
744.38	13.79
744.56	14.38
744.739	14.15
744.918	14.18
745.097	14.51
745.276	14.24
745.455	13.54
745.635	14.26
745.814	13.71
745.993	14.54
746.172	13.41
746.351	14.81
746.53	14.46
746.709	14.23
746.888	13.95
747.067	13.52
747.246	14.07
747.425	13.69
747.604	13.58
747.783	14.26
747.962	13.69
748.141	14.15
748.32	14.3
748.499	14.94
748.677	14.42
748.856	13.75
749.035	14.08
749.214	14.38
749.393	14.5
749.572	13.84
749.75	14.15
749.929	14.66
750.108	14.97
750.287	14.31
750.465	14.46
750.644	14.4
750.823	14.03
751.001	14.53
751.18	13.94
751.359	13.79
751.537	13.52
751.716	12.98
751.894	12.55
752.073	13.18
752.251	12.92
752.43	13.25
752.609	14.48
752.787	14.36
752.966	13.92
753.144	13.57
753.322	13.03
753.501	13.54
753.679	13.83
753.858	12.83
754.036	12.75
754.215	13.39
754.393	12.78
754.571	12.71
754.75	12.94
754.928	12.96
755.106	13.64
755.284	14.13
755.463	13.93
755.641	14.04
755.819	13.94
755.997	14.09
756.176	14.34
756.354	14.14
756.532	14.67
756.71	13.74
756.888	13.85
757.066	13.96
757.245	13.12
757.423	12.88
757.601	13.06
757.779	13.23
757.957	13.46
758.135	13.44
758.313	13.22
758.491	13.66
758.669	13
758.847	12.98
759.025	13.41
759.203	13.63
759.381	13.48
759.559	13.61
759.737	13.65
759.915	13.72
760.092	12.84
760.27	13.46
760.448	13.29
760.626	13.34
760.804	13.51
760.981	13.31
761.159	13.88
761.337	12.98
761.515	13.54
761.692	13.58
761.87	13.59
762.048	12.65
762.226	13.18
762.403	13.26
762.581	13.31
762.759	12.84
762.936	13.96
763.114	13.71
763.291	13.92
763.469	14.22
763.647	13.64
763.824	13.64
764.002	13.82
764.179	13.98
764.357	13.89
764.534	13.17
764.712	13.02
764.889	13.03
765.066	13.36
765.244	12.27
765.421	12.75
765.599	12.81
765.776	13.01
765.953	12.15
766.131	13.07
766.308	12.89
766.485	13.81
766.663	13.41
766.84	13.25
767.017	13.2
767.194	12.98
767.372	13.86
767.549	13.82
767.726	13.04
767.903	13.13
768.081	12.96
768.258	12.68
768.435	13.78
768.612	12.83
768.789	13.69
768.966	13.47
769.143	12.78
769.32	13.96
769.497	13.44
769.674	13.24
769.851	13.38
770.028	13.7
770.205	13.52
770.382	13.36
770.559	13.5
770.736	13.99
770.913	14.03
771.09	13.96
771.267	12.5
771.444	13.81
771.621	13.28
771.798	12.98
771.975	14.17
772.151	13.94
772.328	13.48
772.505	13.4
772.682	14.22
772.859	13.76
773.035	13.39
773.212	12.53
773.389	13.36
773.565	12.95
773.742	13.49
773.919	12.63
774.096	12.73
774.272	13.85
774.449	12.88
774.625	13.09
774.802	11.95
774.979	12.88
775.155	12.4
775.332	12.17
775.508	13.82
775.685	12.6
775.861	13.23
776.038	13.53
776.214	12.12
776.391	12.58
776.567	12.97
776.744	14.24
776.92	14.16
777.096	13.14
777.273	13.01
777.449	12.84
777.626	12.91
777.802	12.18
777.978	11.6
778.155	12.31
778.331	13.3
778.507	13.16
778.683	12.09
778.86	12.46
779.036	12.44
779.212	12.67
779.388	12.6
779.565	11.76
779.741	13.66
779.917	12.25
780.093	12.29
780.269	10.81
780.445	11.96
780.621	12.85
780.797	12.07
780.974	11.65
781.15	11.66
781.326	13.65
781.502	11.63
781.678	12.23
781.854	12.65
782.03	12.37
782.206	12.24
782.382	11.28
782.558	13.82
782.733	12.35
782.909	13.64
783.085	13.74
783.261	13.59
783.437	10.99
783.613	12.49
783.789	12.43
783.965	12.16
784.14	11.64
784.316	11.85
784.492	12.49
784.668	11.98
784.843	12.71
785.019	11.75
785.195	10.86
785.371	13.43
785.546	12.7
785.722	12.94
785.898	11.19
786.073	14.46
786.249	13.58
786.424	12.55
786.6	11.31
786.776	12.79
786.951	11.89
787.127	13.52
787.302	12.59
787.478	12.39
787.653	11.46
787.829	11.35
788.004	12.38
788.18	12.97
788.355	12.37
788.531	12.68
788.706	13.83
788.881	12.75
789.057	13.97
789.232	12.38
789.408	13.46
789.583	12.41
789.758	12.68
789.934	11.42
790.109	11.8
790.284	12.85
790.459	13.26
790.635	13.4
790.81	12.69
790.985	13.16
791.16	11.52
791.336	11.91
791.511	12.58
791.686	11.1
791.861	12.67
792.036	13.63
792.211	10.97
792.387	11.87
792.562	11.14
792.737	9.84
792.912	12.22
793.087	12.95
793.262	11.1
793.437	12.83
793.612	11.51
793.787	12.02
793.962	11.28
794.137	12.49
794.312	13.24
794.487	13.42
794.662	10.68
794.837	12.39
795.011	8.65
795.186	12.73
795.361	10.32
795.536	12.69
795.711	11.52
795.886	12.12
796.06	10.08
796.235	11.22
796.41	10.52
796.585	12.16
796.76	12.47
796.934	10.74
797.109	12.35
797.284	13.43
797.458	10.77
797.633	12.58
797.808	11.99
797.982	14.22
798.157	10.9
798.332	11.76
798.506	12.71
798.681	11.64
798.855	11.7
799.03	12.72
799.204	12.23
799.379	8.54
799.553	11.58
799.728	9.77
799.902	11.2
800.077	10.92
800.251	13.58
800.426	11.41
800.6	13.13
800.775	13.27
800.949	12.47
801.123	12.42
801.298	11.1
801.472	13.67
801.647	10.01
801.821	11.99
801.995	7.69
802.169	12.84
802.344	9.75
802.518	12.71
802.692	11.4
802.867	12.01
803.041	9.77
803.215	11.18
803.389	12.72
803.563	8.42
803.737	12.43
803.912	14.99
804.086	11.38
804.26	13.02
804.434	9.17
804.608	11.35
804.782	11.95
804.956	10.96
805.13	11.05
805.304	9.05
805.478	12.54
805.652	14.78
805.826	15.35
806	15.24
806.174	10.67
806.348	12.69
806.522	11.91
806.696	10.43
806.87	13.01
807.044	12.71
807.218	16.83
807.392	11.44
807.566	12.86
807.739	12.79
807.913	9.79
808.087	13.17
808.261	8.8
808.435	11.57
808.608	9.34
808.782	8.55
808.956	10.04
809.13	8.13
809.303	11.18
809.477	15.13
809.651	12.79
809.824	9.52
809.998	12.23
810.172	11.36
810.345	12.61
810.519	9.73
810.692	9.94
810.866	11.23
811.04	9.72
811.213	13.52
811.387	10.36
811.56	13.68
811.734	12.01
811.907	12.83
812.081	12.86
812.254	10.2
812.428	13
812.601	11.39
812.774	11.74
812.948	9.27
813.121	14.04
813.295	11.08
813.468	10.22
813.641	11.71
813.815	13.05
813.988	12.88
814.161	7.22
814.335	12.77
814.508	11.68
814.681	5.49
814.854	8.61
815.028	10.97
815.201	13.47
815.374	9.99
815.547	10.68
815.72	12.79
815.894	8.68
816.067	10.01
816.24	13.35
816.413	11.18
816.586	11.73
816.759	13.88
816.932	10.59
817.105	13.5
817.278	11.18
817.452	11.08
817.625	12.28
817.798	12.47
817.971	11.7
818.144	8.85
818.317	15.42
818.49	10.76
818.662	12.12
818.835	11.25
819.008	11.37
819.181	13.31
819.354	11.01
819.527	13.91
819.7	5.31
819.873	11.36
820.046	11.02
820.218	9.95
820.391	13.67
820.564	12.75
820.737	10.64
820.909	14.26
821.082	8.62
821.255	10.44
821.428	14.22
821.6	10.39
821.773	9.35
821.946	11.63
822.118	14.4
822.291	10.7
822.464	9.55
822.636	12.38
822.809	11.95
822.982	11.28
823.154	12.15
823.327	11.7
823.499	7.57
823.672	14.76
823.844	6.93
824.017	11.93
824.189	10.88
824.362	12.17
824.534	12.84
824.707	13.36
824.879	7.92
825.052	13.62
825.224	13.53
825.396	10.88
825.569	14.94
825.741	8.89
825.914	12.58
826.086	13.73
826.258	13.92
826.431	12.63
826.603	10.84
826.775	14.5
826.947	13.28
827.12	11.47
827.292	13.34
827.464	7.71
827.636	11.45
827.809	9.51
827.981	8.58
828.153	13.41
828.325	11.02
828.497	10.56
828.669	9.47
828.842	10.08
829.014	11.2
829.186	8.61
829.358	11.6
829.53	12.65
829.702	11.56
829.874	12.78
830.046	11.05
830.218	12.76
830.39	10.65
830.562	12.87
830.734	11.85
830.906	9.73
831.078	10.84
831.25	13.05
831.422	7.22
831.594	13.67
831.766	11.02
831.937	11.06
832.109	13.05
832.281	11.73
832.453	11.04
832.625	11.37
832.797	9.95
832.968	14.24
833.14	11.33
833.312	10.16
833.484	13.17
833.655	11.66
833.827	9.81
833.999	14.01
834.171	10.2
834.342	11.46
834.514	10.46
834.686	9.19
834.857	7.06
835.029	7.39
835.2	10.17
835.372	10.17
835.544	9.71
835.715	10
835.887	7.93
836.058	9.44
836.23	14.13
836.401	10.51
836.573	9.25
836.744	9.97
836.916	11.28
837.087	6.53
837.259	13.42
837.43	8.95
837.602	9.64
837.773	12.69
837.945	11.74
838.116	7.95
838.287	3.25
838.459	9.41
838.63	12.03
838.801	13.83
838.973	9.91
839.144	10.54
839.315	12.05
839.487	13.34
839.658	13.25
839.829	11.55
840	9.04
840.172	7.89
840.343	9.48
840.514	16.51
840.685	9.71
840.856	11.58
841.027	11.5
841.199	13.02
841.37	5.72
841.541	9.31
841.712	11.8
841.883	13.87
842.054	10.42
842.225	13.77
842.396	10.3
842.567	8.03
842.738	11.8
842.909	16.33
843.08	10.74
843.251	12.02
843.422	9.52
843.593	10.13
843.764	7.71
843.935	13.31
844.106	9.17
844.277	14.06
844.448	13.46
844.619	6.43
844.79	14.96
844.96	16.03
845.131	9.8
845.302	7.15
845.473	12.17
845.644	11.19
845.814	11.25
845.985	12.88
846.156	15.47
846.327	8.84
846.497	7.51
846.668	8.86
846.839	14.45
847.01	11.38
847.18	11.1
847.351	11.92
847.522	14.25
847.692	15.89
847.863	13.49
848.033	5.35
848.204	12.98
848.375	7.93
848.545	11.15
848.716	14.17
848.886	14.6
849.057	11.33
849.227	14.63
849.398	7.58
849.568	11.84
849.739	14.76
849.909	8.64
850.08	10.5
850.25	8.58
850.421	8.94
850.591	11.69
850.761	10.28
850.932	9.9
851.102	4.5
851.272	13.23
851.443	15.46
851.613	11.02
851.783	16.1
851.954	9.47
852.124	9.94
852.294	11.11
852.465	11.09
852.635	12.77
852.805	7.9
852.975	6.73
853.145	9.87
853.316	11.09
853.486	9.63
853.656	14.72
853.826	12.56
853.996	13.96
854.166	15.06
854.337	9.93
854.507	7.01
854.677	13.83
854.847	9.95
855.017	10.32
855.187	14.4
855.357	8.29
855.527	7.55
855.697	6.11
855.867	8.28
856.037	12.06
856.207	12.29
856.377	7.36
856.547	7.84
856.717	13.47
856.887	10.61
857.057	9.28
857.227	12.54
857.397	15.51
857.566	12.88
857.736	3.92
857.906	2.91
858.076	12.53
858.246	10.12
858.416	9.13
858.585	8.23
858.755	9.38
858.925	3.92
859.095	14.04
859.264	9.82
859.434	10.84
859.604	1.58
859.774	12.06
859.943	7.89
860.113	5.89
860.283	10.52
860.452	9.09
860.622	9.64
860.791	14.18
860.961	13.78
861.131	6.1
861.3	12.34
861.47	10.26
861.639	9.53
861.809	18.11
861.978	8
862.148	11.13
862.318	4.86
862.487	4.26
862.657	8.31
862.826	7.5
862.995	11.95
863.165	17.62
863.334	6.81
863.504	9.84
863.673	8.22
863.843	5.6
864.012	16.53
864.181	5.72
864.351	10.73
864.52	5.78
864.689	4.8
864.859	3.34
865.028	8.14
865.197	0.56
865.366	6.86
865.536	11.22
865.705	17.1
865.874	7.58
866.043	4.33
866.213	10.79
866.382	10.86
866.551	3.2
866.72	17.01
866.889	5.46
867.059	-2.93
867.228	15.09
867.397	2.65
867.566	7.52
867.735	19.16
867.904	18.44
868.073	0.1
868.242	7.89
868.411	5
868.58	10.97
868.749	11.81
868.918	10.45
869.087	13.13
869.256	7.36
869.425	-0.94
869.594	8.72
869.763	14.87
869.932	15.03
870.101	-1.74
870.27	1.73
870.439	8.02
870.608	11.97
870.777	0.75
870.945	5.94
871.114	8.75
871.283	5.8
871.452	10.13
871.621	12.51
871.789	5.92
871.958	18.3
872.127	10.92
872.296	7.56
872.464	12.7
872.633	9.4
872.802	4
872.971	13.64
873.139	9.56
873.308	3.64
873.477	9.57
873.645	11.62
873.814	18.08
873.983	-12.42
874.151	8.51
874.32	8.53
874.488	16.21
874.657	6.34
874.826	22.59
874.994	13.37
875.163	2.68
875.331	8.27
875.5	11.37
875.668	12.77
875.837	5.83
876.005	12.82
876.174	8.81
876.342	0.36
876.51	10.77
876.679	5.42
876.847	9.45
877.016	7.42
877.184	2.68
877.352	-4.36
877.521	10.33
877.689	14.71
877.857	11.53
878.026	14.28
878.194	9.13
878.362	11.7
878.531	2.94
878.699	18.96
878.867	12.08
879.036	13.39
879.204	9.5
879.372	3.7
879.54	8.22
879.708	14.8
879.877	9.5
880.045	5.56
880.213	4.89
880.381	18.37
880.549	12.31
880.717	15.21
880.885	10.99
881.054	6.64
881.222	20.89
881.39	15.68
881.558	16.39
881.726	-5.33
881.894	11.56
882.062	7.76
882.23	11.57
882.398	19.48
882.566	4.1
882.734	8.61
882.902	20.19
883.07	1.82
883.238	2.55
883.406	8.8
883.574	-5.98
883.741	16.12
883.909	-8.26
884.077	29.26
884.245	19.02
884.413	1.17
884.581	7.55
884.749	7.74
884.916	9.05
885.084	19.93
885.252	5.37
885.42	1.88
885.587	22.24
885.755	17.04
885.923	-2.03
886.091	6.13
886.258	16.84
886.426	-1.17
886.594	-3.59
886.761	14.72
886.929	2.34
887.097	4.77
887.264	5.1
887.432	14.82
887.6	10.51
887.767	2.59
887.935	10.14
888.102	1.8
888.27	7.15
888.438	14.95
888.605	-1.95
888.773	19.47
888.94	11.85
889.108	-6.59
889.275	24.37
889.443	23.03
889.61	10.2
889.778	9.41
889.945	5.38
890.112	-4.75
890.28	11.82
890.447	16.02
890.615	6.01
890.782	3.68
890.949	3.8
891.117	-9.59
891.284	4.75
891.452	-13.1
891.619	3.58
891.786	15.49
891.953	19.49
892.121	8.34
892.288	13.75
892.455	20.47
892.623	7.02
892.79	13.74
892.957	11.07
893.124	30.66
893.291	-1.63
893.459	14.38
893.626	14.38
893.793	-9.8
893.96	14.48
894.127	-3.24
894.294	1.12
894.461	-8.31
894.629	21.41
894.796	9.23
894.963	10.62
895.13	15.8
895.297	12.2
895.464	16.42
895.631	22.62
895.798	17
895.965	22.32
896.132	-3.88
896.299	-1.53
896.466	14.28
896.633	19.28
896.8	2.45
896.967	8.84
897.134	9.43
897.301	-9.04
897.467	11.96
897.634	11.14
897.801	10.6
897.968	15.24
898.135	2.9
898.302	-0.23
898.469	10.67
898.635	22.2
898.802	21.93
898.969	33.58
899.136	6.82
899.303	13.12
