Data from x0_Transmission_15-16-15-565.txt Node
Date: Thu May 02 15:16:15 EDT 2019
User: dh1006
Spectrometer: USB4E01358
Autoset integration time: false
Trigger mode: 4
Integration Time (sec): 8.000000E-2
Scans to average: 1
Electric dark correction enabled: true
Nonlinearity correction enabled: false
Boxcar width: 0
Stray light correction enabled: false
XAxis mode: Wavelengths
Stop averaging: false
Number of Pixels in Spectrum: 3648
>>>>>Begin Spectral Data<<<<<
176.727	-230
176.966	-230
177.205	-230
177.444	192.13
177.683	95.38
177.922	56.53
178.161	92.59
178.4	4
178.638	875
178.877	-363.77
179.116	447.37
179.355	-690.91
179.593	81.27
179.832	-31.94
180.071	71.05
180.309	1055.56
180.548	73.94
180.786	163.24
181.025	-5950
181.263	-77.59
181.502	194.96
181.74	32.36
181.979	-19.52
182.217	-100
182.456	202.74
182.694	-58.86
182.932	17.62
183.17	44.18
183.409	-20.41
183.647	125.55
183.885	337.89
184.123	141.64
184.361	21.58
184.6	-53.81
184.838	3077.78
185.076	1200
185.314	-43.36
185.552	98.67
185.79	-24.3
186.028	43.54
186.266	94.29
186.503	2.63
186.741	133.17
186.979	7.52
187.217	10300
187.455	-45.38
187.693	76.63
187.93	88.85
188.168	35.42
188.406	143.75
188.643	17.76
188.881	-797.1
189.119	39.87
189.356	-569.44
189.594	22.91
189.831	-271.9
190.069	-100
190.306	62.01
190.543	17.16
190.781	143.43
191.018	20.49
191.256	411.48
191.493	-135.86
191.73	2.28
191.967	-192.86
192.205	-43.48
192.442	14.99
192.679	-13100
192.916	-392.5
193.153	69.42
193.39	-378.57
193.628	-36.97
193.865	-176.66
194.102	271.43
194.339	76.33
194.576	92.42
194.813	33.18
195.049	-75.62
195.286	101.41
195.523	60.56
195.76	-20.18
195.997	-44.09
196.234	13.04
196.47	-31.76
196.707	-100
196.944	59.71
197.18	16.13
197.417	11.72
197.654	58.97
197.89	83.53
198.127	39.91
198.363	-85.06
198.6	16.91
198.836	-48
199.073	26.46
199.309	47.88
199.546	18.58
199.782	-75.47
200.018	-1140
200.255	26.69
200.491	-1188.37
200.727	158.48
200.963	39.38
201.199	19.12
201.436	235.96
201.672	30.58
201.908	13.59
202.144	51.27
202.38	-154.74
202.616	8.94
202.852	80.2
203.088	19.77
203.324	-154.74
203.56	-385.37
203.796	15.84
204.032	-10.15
204.268	306.25
204.503	87.89
204.739	-84.97
204.975	-84.03
205.211	160
205.446	34.02
205.682	-4.25
205.918	-402.33
206.153	-11.19
206.389	308.06
206.625	89.24
206.86	86.14
207.096	-148.75
207.331	149.43
207.567	-309.68
207.802	-206.12
208.037	-26.52
208.273	-44.92
208.508	32.41
208.744	-65.79
208.979	0.9
209.214	-2050
209.449	22.02
209.685	-163.88
209.92	57.8
210.155	-18.07
210.39	123.38
210.625	132.14
210.86	-63.75
211.095	103.92
211.33	26.02
211.565	-653.7
211.8	-219.54
212.035	265.29
212.27	76.37
212.505	-136.88
212.74	104.57
212.975	845.45
213.21	140.18
213.444	-123.71
213.679	-3.81
213.914	-10.69
214.149	-81.53
214.383	36.5
214.618	70.08
214.853	-55.93
215.087	130.65
215.322	184.5
215.556	-34.67
215.791	-432.56
216.025	114.88
216.26	-9.12
216.494	163.51
216.729	44.44
216.963	-4.79
217.197	-3.02
217.432	36.28
217.666	137.8
217.9	34.4
218.135	-0.59
218.369	3077.78
218.603	195.81
218.837	3.3
219.071	-74.61
219.306	100.89
219.54	116.67
219.774	79
220.008	238.62
220.242	-271.9
220.476	-3311.76
220.71	45.25
220.944	92.15
221.178	169.51
221.411	-131.38
221.645	74.02
221.879	56.52
222.113	-1400
222.347	9.86
222.58	-47.47
222.814	18.18
223.048	273.15
223.281	-117.06
223.515	613.27
223.749	-343.75
223.982	-129.3
224.216	238
224.449	430.26
224.683	-64.86
224.916	-184.26
225.15	6.68
225.383	4
225.617	-8.92
225.85	37.85
226.083	154.35
226.317	27.64
226.55	-15.08
226.783	730.56
227.016	21.19
227.25	-360
227.483	-657.14
227.716	-38.94
227.949	-47.53
228.182	113.92
228.415	-25.95
228.648	-205.63
228.881	119.79
229.114	-70.7
229.347	57.32
229.58	693
229.813	15.32
230.046	-85.23
230.279	-14.21
230.512	41.97
230.745	-12.34
230.977	30.9
231.21	56.28
231.443	-145.03
231.675	129.41
231.908	741.18
232.141	90.45
232.373	118.95
232.606	368.71
232.839	35.74
233.071	-111.56
233.304	-16.29
233.536	-31.58
233.769	139.63
234.001	27.51
234.233	-75.93
234.466	17.63
234.698	129.41
234.93	-104.48
235.163	14.48
235.395	-251.16
235.627	-188.64
235.86	-213.04
236.092	130.96
236.324	7.34
236.556	52.28
236.788	67.07
237.02	-67.04
237.252	66.28
237.484	90.04
237.716	-620
237.948	63.04
238.18	190.08
238.412	278.89
238.644	153.91
238.876	290
239.108	23.42
239.34	-398.36
239.571	14.04
239.803	16.12
240.035	155.59
240.267	94.23
240.498	-1255.56
240.73	432.79
240.962	-47.74
241.193	120.58
241.425	5.46
241.656	171.22
241.888	76.63
242.119	35.29
242.351	81.4
242.582	34.91
242.814	157.85
243.045	28.65
243.277	-90.3
243.508	233.78
243.739	110.4
243.971	34.55
244.202	25.21
244.433	-107.51
244.664	41.78
244.896	-9.49
245.127	2.72
245.358	-610.71
245.589	-17.34
245.82	225.94
246.051	-0.9
246.282	32.62
246.513	338.2
246.744	15.86
246.975	-385.37
247.206	-134.32
247.437	2.54
247.668	-376.85
247.899	92.99
248.129	111.25
248.36	-36.95
248.591	7.85
248.822	27.95
249.052	-177.61
249.283	-45.91
249.514	15.68
249.744	50.1
249.975	-153.48
250.206	36.48
250.436	-72.34
250.667	-43.88
250.897	71.55
251.128	13.4
251.358	-222.97
251.589	156.39
251.819	88.81
252.049	-85.92
252.28	60.73
252.51	-17.56
252.74	2.97
252.971	-750
253.201	55.85
253.431	22.95
253.661	-106.13
253.891	70.62
254.121	28.83
254.352	148.44
254.582	-545.71
254.812	-1.59
255.042	-178.39
255.272	-120.47
255.502	-82.34
255.732	-100
255.962	667.21
256.192	77.47
256.421	-185.81
256.651	-3.81
256.881	-105.78
257.111	75.36
257.341	14.09
257.57	63.21
257.8	9.33
258.03	59.02
258.259	50.07
258.489	24.02
258.719	55.19
258.948	-80.81
259.178	95.15
259.407	325.66
259.637	-13.33
259.866	-116.25
260.096	-269.85
260.325	132.95
260.555	102.1
260.784	-15.65
261.013	-1121.43
261.243	-34.64
261.472	444.59
261.701	148.44
261.931	47.73
262.16	10.85
262.389	38.58
262.618	-144.32
262.847	14.86
263.076	92.8
263.305	43.31
263.535	-130.66
263.764	-14.23
263.993	69.26
264.222	11.6
264.451	-1.52
264.679	18.43
264.908	25.9
265.137	54.63
265.366	30.41
265.595	154.68
265.824	39.14
266.053	30.74
266.281	-205.2
266.51	28.68
266.739	18.34
266.967	2.81
267.196	9650
267.425	45.18
267.653	24.05
267.882	-36.91
268.11	622.22
268.339	97.75
268.567	-81.6
268.796	-154.62
269.024	-1005.36
269.253	-144.36
269.481	140.13
269.709	18.18
269.938	-1.17
270.166	1.46
270.394	-44.68
270.623	53.22
270.851	-115.2
271.079	51.57
271.307	21.5
271.535	58.26
271.764	12.85
271.992	296.45
272.22	18.18
272.448	97.66
272.676	44.44
272.904	43.45
273.132	-0.65
273.36	78.03
273.588	199.54
273.816	-14.91
274.043	-39.95
274.271	110.1
274.499	200.44
274.727	-160.19
274.955	35.49
275.182	-26.11
275.41	-93.01
275.638	-10.83
275.866	2229.17
276.093	97.66
276.321	10.38
276.548	28.37
276.776	-37.69
277.003	-17.99
277.231	754.29
277.458	1.96
277.686	-189.38
277.913	241.25
278.141	93.34
278.368	6.36
278.595	1.81
278.823	-432.93
279.05	31.41
279.277	-90.79
279.505	-73.1
279.732	-276.1
279.959	85.71
280.186	-0.98
280.413	-10.46
280.641	-167.63
280.868	-42.57
281.095	151.26
281.322	-1443.33
281.549	-16.47
281.776	-29.09
282.003	12.76
282.23	-194.14
282.457	74.02
282.683	15.89
282.91	-213.75
283.137	54.67
283.364	1259.09
283.591	-61.76
283.818	1850
284.044	-886.05
284.271	71.76
284.498	-288.78
284.724	-32.47
284.951	78.73
285.178	17.63
285.404	3.12
285.631	71.57
285.857	-43.58
286.084	-283.96
286.31	-76.36
286.537	14.09
286.763	-8
286.99	22.13
287.216	2066.67
287.442	-321.09
287.669	27.22
287.895	30.58
288.121	376.98
288.347	-67.23
288.574	29.64
288.8	-36.65
289.026	-1.52
289.252	-1.32
289.478	-235.82
289.704	26.68
289.931	49.28
290.157	30.73
290.383	2.34
290.609	64.62
290.835	14.15
291.06	45.18
291.286	33.07
291.512	-137.57
291.738	115.67
291.964	48.48
292.19	3.78
292.416	-100
292.641	-23.34
292.867	-4.18
293.093	420
293.319	52.73
293.544	-6.44
293.77	-16.13
293.995	73.73
294.221	-50.48
294.447	88.83
294.672	36.55
294.898	18.68
295.123	101.27
295.349	76.9
295.574	-131.71
295.799	53.12
296.025	-5.33
296.25	-31.14
296.476	251
296.701	16.37
296.926	-14.91
297.151	-228.03
297.377	382.86
297.602	6.96
297.827	52.4
298.052	119.38
298.277	69.96
298.502	-7.95
298.727	87.66
298.953	-37.84
299.178	75.52
299.403	193.97
299.628	-15.45
299.852	-23.53
300.077	-2700
300.302	56.3
300.527	-20.81
300.752	14.58
300.977	342
301.202	581.97
301.426	-38.58
301.651	-84.52
301.876	116.67
302.101	-131.08
302.325	32.18
302.55	-231.41
302.775	9.51
302.999	29.44
303.224	-21.01
303.448	53.03
303.673	-581.48
303.897	5.94
304.122	-38.35
304.346	59.82
304.571	16.61
304.795	121.09
305.019	25.25
305.244	53.93
305.468	427.03
305.692	333.33
305.917	-132.23
306.141	-26.11
306.365	816.39
306.589	-0.95
306.813	14.16
307.038	-53.57
307.262	110.23
307.486	57.86
307.71	-5300
307.934	56.38
308.158	42.77
308.382	-82.51
308.606	-91.96
308.83	-53.82
309.054	-204
309.278	-15.13
309.502	105.61
309.725	-39.88
309.949	12.25
310.173	22.03
310.397	70.42
310.62	94.03
310.844	-1.44
311.068	200.63
311.292	11.28
311.515	73.14
311.739	956.25
311.962	-56.06
312.186	57.71
312.41	-0.78
312.633	-66.95
312.857	42.4
313.08	-461.11
313.303	-42.16
313.527	-64.38
313.75	-27.06
313.974	-90.32
314.197	7.94
314.42	137.18
314.644	56.63
314.867	-0.45
315.09	-69.1
315.313	45.47
315.536	-19.14
315.76	-1.38
315.983	-109.58
316.206	-10.18
316.429	249.38
316.652	-111.56
316.875	72.84
317.098	21.98
317.321	-61.76
317.544	-132.5
317.767	-9.66
317.99	-166.05
318.213	-17.38
318.436	-71.2
318.658	-29.62
318.881	-44.92
319.104	5.24
319.327	27.22
319.55	101.99
319.772	214.7
319.995	-273.33
320.218	20.9
320.44	-17.46
320.663	137.56
320.885	-7.61
321.108	33.73
321.331	-87.28
321.553	-38.29
321.776	2175
321.998	29.9
322.22	-108.5
322.443	131.44
322.665	-157.78
322.888	46.4
323.11	6.22
323.332	39.29
323.555	295.1
323.777	-50.58
323.999	6.68
324.221	15.26
324.443	74.83
324.666	42.84
324.888	41.23
325.11	-508.26
325.332	193.97
325.554	4.25
325.776	52.02
325.998	867.44
326.22	163.77
326.442	43.22
326.664	-24.3
326.886	-63.21
327.108	-77.59
327.33	183.11
327.551	-1.63
327.773	18.86
327.995	112.78
328.217	47.4
328.439	-66.26
328.66	17.21
328.882	-368.6
329.104	-471.43
329.325	30.58
329.547	47.46
329.769	226.07
329.99	53.12
330.212	922.95
330.433	11.36
330.655	-10.76
330.876	104.42
331.098	581.97
331.319	-23.94
331.54	13.91
331.762	60.95
331.983	192.37
332.204	-44.62
332.426	-38.82
332.647	148.31
332.868	46.02
333.089	43.45
333.311	38.4
333.532	-39.53
333.753	-186.67
333.974	-17.79
334.195	-57.61
334.416	3.74
334.637	165.59
334.858	67.04
335.079	79.61
335.3	-123.09
335.521	-243.72
335.742	-702.9
335.963	61.26
336.184	65.13
336.405	25.15
336.626	43.29
336.846	-79.43
337.067	26.9
337.288	46.8
337.509	-1703.33
337.729	40.94
337.95	-583.72
338.171	-2.01
338.391	35.95
338.612	32.23
338.833	793.75
339.053	34.35
339.274	14.77
339.494	10.41
339.715	663.49
339.935	-91.77
340.156	29.45
340.376	-35.22
340.596	65.13
340.817	1274.29
341.037	-91.77
341.257	48.73
341.478	-17.76
341.698	-32.88
341.918	119.38
342.138	-23.09
342.359	-44.09
342.579	-43.48
342.799	47.73
343.019	52.2
343.239	36.84
343.459	161.65
343.679	91.18
343.899	2.72
344.119	-31.4
344.339	-17.72
344.559	21.98
344.779	475.15
344.999	17.9
345.219	35.73
345.439	5.77
345.658	6255.56
345.878	-18.75
346.098	-43.36
346.318	-15.96
346.537	-809.09
346.757	205.53
346.977	50.08
347.196	7.91
347.416	75.88
347.636	-37.66
347.855	9.24
348.075	-6.44
348.294	62.5
348.514	-437.04
348.733	-12.55
348.953	23.16
349.172	96.44
349.392	-59.06
349.611	-2.41
349.83	-100
350.05	-52.09
350.269	-77.9
350.488	-4.39
350.707	557.47
350.927	-1.22
351.146	44.68
351.365	-12.29
351.584	-6.44
351.803	5.69
352.023	24.74
352.242	50.05
352.461	113.78
352.68	-89.64
352.899	60.59
353.118	50.15
353.337	37.88
353.556	-20.18
353.775	3.82
353.993	-30.71
354.212	7.67
354.431	-2.87
354.65	-11.54
354.869	-6.04
355.088	7.53
355.306	29.45
355.525	30.49
355.744	9.6
355.962	74.73
356.181	567.57
356.4	-92.4
356.618	35.28
356.837	-47.21
357.055	-25.41
357.274	66.39
357.492	-461.11
357.711	6.67
357.929	-37.38
358.148	-377.33
358.366	158.48
358.585	104.49
358.803	-35.64
359.021	728.32
359.24	-37.41
359.458	-170.4
359.676	27.35
359.894	49.28
360.113	13.3
360.331	44.11
360.549	1422.86
360.767	30.22
360.985	-148.51
361.203	-10.69
361.421	26.53
361.639	-32.23
361.857	87.23
362.075	24.66
362.293	16.62
362.511	-128.8
362.729	-103.53
362.947	-55.61
363.165	-132.5
363.383	17.71
363.601	22.42
363.819	104.57
364.036	-5.09
364.254	51.78
364.472	-8.56
364.689	-56.06
364.907	36.94
365.125	111.25
365.342	-84.97
365.56	45.78
365.778	20.77
365.995	-262.5
366.213	109.68
366.43	98.47
366.648	-102.26
366.865	31.91
367.083	3.91
367.3	13.26
367.517	8.33
367.735	-86.8
367.952	-19.27
368.17	9.47
368.387	13.19
368.604	25.45
368.821	133.1
369.039	-4.45
369.256	12.54
369.473	20.6
369.69	-96.2
369.907	-4650
370.124	1909.09
370.341	174.02
370.558	66.19
370.776	23.93
370.993	140.14
371.21	-52.39
371.426	-6.73
371.643	-30.63
371.86	85.17
372.077	-28.28
372.294	-18.75
372.511	-17.94
372.728	-2.55
372.945	-29.26
373.161	-9.74
373.378	63.45
373.595	-91.96
373.811	22.17
374.028	-20.11
374.245	-15.96
374.461	64.56
374.678	53.91
374.895	-52.21
375.111	-14.62
375.328	64.99
375.544	637.84
375.761	80.07
375.977	38.04
376.194	69.13
376.41	-20.18
376.626	-19.73
376.843	17.55
377.059	26.89
377.275	1.27
377.492	67.31
377.708	-44.71
377.924	15.64
378.14	10.88
378.357	7.97
378.573	-62.97
378.789	34.81
379.005	34.53
379.221	-66.91
379.437	-67.75
379.653	-8.16
379.869	30.12
380.085	-44.58
380.301	25.41
380.517	-11.73
380.733	6.81
380.949	-14.25
381.165	58.35
381.381	10.92
381.597	38.9
381.813	26.61
382.028	-2.55
382.244	-49.47
382.46	-53.5
382.676	-24.7
382.891	-13.78
383.107	1.04
383.323	14.19
383.538	1.25
383.754	-17.21
383.969	24.36
384.185	42.45
384.4	44.33
384.616	30.34
384.831	72.19
385.047	-107.1
385.262	28.6
385.478	1.83
385.693	-17.86
385.909	30.6
386.124	-6.05
386.339	9.04
386.554	-6.55
386.77	22.32
386.985	-40.56
387.2	61.96
387.415	57.32
387.631	23
387.846	26.21
388.061	28.44
388.276	28.09
388.491	-2.35
388.706	-20.88
388.921	3.77
389.136	25.1
389.351	33.56
389.566	19.2
389.781	21.51
389.996	25.47
390.211	47.67
390.426	15.59
390.641	18.37
390.855	-7.14
391.07	18.02
391.285	12.35
391.5	15.86
391.714	18.31
391.929	30.95
392.144	15.53
392.358	-3.14
392.573	19.18
392.788	10.18
393.002	13.08
393.217	5.86
393.431	-12.25
393.646	1.83
393.86	8.38
394.075	2.36
394.289	12.72
394.504	23.73
394.718	6.7
394.933	7.68
395.147	5.23
395.361	6.92
395.576	28.85
395.79	5.5
396.004	18.14
396.218	0.39
396.432	9.76
396.647	24.42
396.861	29.01
397.075	30.8
397.289	13.15
397.503	11.63
397.717	13.35
397.931	8.53
398.145	2.76
398.359	16.27
398.573	5.95
398.787	22.76
399.001	5.5
399.215	20.08
399.429	20.87
399.643	10.31
399.857	25.42
400.07	10.95
400.284	12.4
400.498	6.72
400.712	7.47
400.925	15.56
401.139	14.21
401.353	21.42
401.566	18.77
401.78	16.35
401.994	11.37
402.207	13.02
402.421	0.96
402.634	3.14
402.848	17.81
403.061	19.43
403.275	17.79
403.488	18.2
403.702	21.08
403.915	8.21
404.128	17.56
404.342	2.95
404.555	0.15
404.768	10.9
404.982	15.88
405.195	13.05
405.408	13.01
405.621	15.17
405.835	15.54
406.048	7.78
406.261	20.78
406.474	19.16
406.687	7.41
406.9	15.06
407.113	16.74
407.326	15.82
407.539	13.71
407.752	12.58
407.965	16.9
408.178	18.26
408.391	14.97
408.604	14.99
408.817	12.3
409.029	15.57
409.242	16.59
409.455	11.7
409.668	14.48
409.881	13.96
410.093	10.99
410.306	16.4
410.519	10.1
410.731	11.72
410.944	13.49
411.157	12.98
411.369	9.38
411.582	13.61
411.794	13.28
412.007	16.37
412.219	15.36
412.432	12.49
412.644	17.14
412.857	12.36
413.069	14.1
413.281	16.26
413.494	18.76
413.706	15.63
413.918	10.93
414.131	15.01
414.343	12.18
414.555	11.53
414.767	15.11
414.979	12.69
415.192	10.08
415.404	11.09
415.616	13.16
415.828	14.21
416.04	12.19
416.252	14.39
416.464	10.76
416.676	13.88
416.888	13.51
417.1	12.13
417.312	12.09
417.524	12.06
417.736	10.24
417.948	8.59
418.159	8.42
418.371	14.19
418.583	8.73
418.795	12.03
419.007	13.01
419.218	8.98
419.43	8.64
419.642	9.2
419.853	8.2
420.065	11.32
420.276	7.65
420.488	9.14
420.7	11.6
420.911	10.85
421.123	9.37
421.334	6.93
421.546	7.81
421.757	11.5
421.969	10.14
422.18	9.33
422.391	8.93
422.603	8.15
422.814	10.73
423.025	8.74
423.237	9.24
423.448	10.09
423.659	9.38
423.87	7.97
424.082	9.85
424.293	9.03
424.504	8.84
424.715	8.91
424.926	8.63
425.137	4.23
425.348	7.26
425.559	7.68
425.77	8.16
425.981	8.03
426.192	7.62
426.403	6.15
426.614	5.45
426.825	6.32
427.036	8.19
427.247	5.59
427.458	7.83
427.668	5.36
427.879	6.59
428.09	7.95
428.301	3.44
428.511	3.62
428.722	4.88
428.933	4.7
429.143	5.04
429.354	5.11
429.565	6.72
429.775	5
429.986	4.7
430.196	5.28
430.407	3.08
430.617	2.71
430.828	4.14
431.038	4.58
431.249	4.42
431.459	3.93
431.669	4.23
431.88	7.47
432.09	6.69
432.3	3.89
432.511	4.9
432.721	6.81
432.931	3.94
433.141	1.99
433.351	2.52
433.562	3.1
433.772	4.32
433.982	4.22
434.192	6.73
434.402	1.89
434.612	2.58
434.822	5.19
435.032	4.17
435.242	5.62
435.452	2.82
435.662	1.3
435.872	2.57
436.082	2.34
436.292	3.59
436.502	3.83
436.711	2.64
436.921	1.19
437.131	3.73
437.341	1.07
437.551	3.65
437.76	6.13
437.97	0.53
438.18	1.82
438.389	3.61
438.599	2.11
438.808	2.56
439.018	4.46
439.228	3.84
439.437	4.12
439.647	3.67
439.856	3.63
440.066	2.95
440.275	3.09
440.484	4.9
440.694	3.36
440.903	4.77
441.113	3.83
441.322	2.25
441.531	4.57
441.741	3.94
441.95	3.24
442.159	3.97
442.368	5.1
442.577	1.91
442.787	5.56
442.996	4.54
443.205	-2
443.414	4.21
443.623	4.23
443.832	5.06
444.041	3.4
444.25	3.75
444.459	2.81
444.668	5.08
444.877	1.52
445.086	2.06
445.295	2.24
445.504	1.18
445.713	4.75
445.922	2.79
446.13	3.56
446.339	0.11
446.548	1.18
446.757	2.88
446.965	2.79
447.174	2.47
447.383	5.27
447.591	0.71
447.8	2.51
448.009	2.49
448.217	3.93
448.426	2.67
448.634	3.04
448.843	1.08
449.051	3.32
449.26	3.08
449.468	4.7
449.677	4.16
449.885	2.58
450.093	4.02
450.302	2.05
450.51	1.18
450.719	1.35
450.927	1.9
451.135	0.64
451.343	1.73
451.552	3.48
451.76	5.18
451.968	6.26
452.176	0.38
452.384	2.5
452.592	4.18
452.8	1.53
453.009	3.21
453.217	4.76
453.425	1.05
453.633	1.97
453.841	2.76
454.049	3.07
454.257	0.91
454.464	5.4
454.672	3.93
454.88	2.07
455.088	1.29
455.296	3.31
455.504	3.65
455.711	2.41
455.919	2.79
456.127	1.21
456.335	3.17
456.542	3.74
456.75	3.97
456.958	1.75
457.165	1.06
457.373	3.89
457.581	-0.55
457.788	0.24
457.996	0.71
458.203	2.53
458.411	3.07
458.618	-1.03
458.826	2.47
459.033	3.23
459.24	1.98
459.448	1.41
459.655	3.81
459.863	0.17
460.07	4.75
460.277	-0.43
460.484	4.7
460.692	4.2
460.899	0.1
461.106	-0.29
461.313	5.22
461.52	0.56
461.728	2.31
461.935	2.46
462.142	1.88
462.349	6.24
462.556	2.47
462.763	1.22
462.97	0.91
463.177	3.27
463.384	1.42
463.591	3.06
463.798	4.53
464.005	3.77
464.212	0.16
464.418	3.72
464.625	0.35
464.832	1.07
465.039	2.1
465.246	0.7
465.452	1.95
465.659	3.34
465.866	2.39
466.072	3
466.279	2.92
466.486	1.41
466.692	2.73
466.899	1.81
467.105	-0.02
467.312	0.46
467.519	2.35
467.725	-0.7
467.931	0.98
468.138	2.47
468.344	2.43
468.551	0.16
468.757	2.06
468.964	2.34
469.17	2.29
469.376	2.37
469.583	0.51
469.789	3.29
469.995	1.19
470.201	3.6
470.408	2.03
470.614	2.75
470.82	1.15
471.026	-0.89
471.232	2.04
471.438	1.71
471.644	3.82
471.85	2.24
472.056	2.06
472.262	4.23
472.468	0.94
472.674	1.42
472.88	4.13
473.086	0.58
473.292	3.33
473.498	0.22
473.704	1.59
473.91	1.87
474.116	2.98
474.321	2.85
474.527	1.19
474.733	1.68
474.939	2
475.144	1.8
475.35	0.73
475.556	0.33
475.761	1.1
475.967	2.64
476.173	2.24
476.378	2.15
476.584	1.45
476.789	3.39
476.995	3.41
477.2	2.37
477.406	1.69
477.611	1.48
477.817	2.5
478.022	1.35
478.227	2.91
478.433	3.66
478.638	2.83
478.843	2.15
479.049	3.01
479.254	1.4
479.459	1.61
479.664	2.45
479.87	3.82
480.075	2.35
480.28	3.51
480.485	3.45
480.69	2.75
480.895	1.83
481.1	3.98
481.306	3.22
481.511	3.36
481.716	1.85
481.921	1.25
482.126	2.49
482.33	2.33
482.535	2.16
482.74	1.83
482.945	2.79
483.15	1.64
483.355	2.62
483.56	1.84
483.765	1.61
483.969	1.99
484.174	3.26
484.379	2.65
484.583	2.81
484.788	2.22
484.993	3.12
485.197	2.19
485.402	3.47
485.607	3.01
485.811	2.78
486.016	3.01
486.22	4.39
486.425	4.15
486.629	3.28
486.834	3.95
487.038	4.23
487.243	3.29
487.447	2.02
487.652	4.1
487.856	4.62
488.06	2.84
488.265	4.06
488.469	3.37
488.673	3.85
488.877	2.9
489.082	3.82
489.286	3.55
489.49	2.47
489.694	3.39
489.898	4.08
490.102	3.42
490.307	3.31
490.511	4.08
490.715	3.95
490.919	3.79
491.123	4.15
491.327	4.94
491.531	3.57
491.735	4.91
491.939	3.44
492.143	4.04
492.346	3.99
492.55	4.67
492.754	4.46
492.958	4.71
493.162	4.75
493.366	4.06
493.569	4.67
493.773	4.03
493.977	5.08
494.18	5
494.384	4.23
494.588	5.56
494.791	4.13
494.995	5.47
495.199	4.72
495.402	6.07
495.606	4.35
495.809	5.32
496.013	4.47
496.216	5.54
496.42	5.03
496.623	5.18
496.827	5.66
497.03	6.33
497.233	5.53
497.437	5.67
497.64	5.55
497.843	4.37
498.047	5.98
498.25	7.16
498.453	6.92
498.656	5.4
498.86	6.9
499.063	6.99
499.266	5.72
499.469	6.83
499.672	7.08
499.875	7.1
500.078	6.02
500.281	8.13
500.484	6.62
500.687	6.17
500.89	7.67
501.093	8.11
501.296	7.9
501.499	6.63
501.702	9.24
501.905	8.44
502.108	9.49
502.311	8.11
502.514	9.67
502.716	9.88
502.919	9.12
503.122	8.74
503.325	9.82
503.527	9.56
503.73	9.66
503.933	9.65
504.135	9.85
504.338	9.87
504.541	10.16
504.743	11.1
504.946	10.41
505.148	10.6
505.351	11.41
505.553	11.63
505.756	11.58
505.958	12.51
506.161	12.31
506.363	11.58
506.565	12.2
506.768	11.93
506.97	12.04
507.172	12.3
507.375	12.33
507.577	12.16
507.779	13.49
507.982	12.79
508.184	12.94
508.386	13.52
508.588	12.91
508.79	12.54
508.993	14.34
509.195	14.33
509.397	14.54
509.599	14.25
509.801	13.48
510.003	15
510.205	15.28
510.407	14.48
510.609	15.39
510.811	14.92
511.013	14.77
511.215	15.16
511.417	15.17
511.618	15.15
511.82	15.24
512.022	14.42
512.224	15.11
512.426	14.55
512.627	15.6
512.829	14.23
513.031	14.86
513.233	15.47
513.434	14.38
513.636	14.5
513.838	15.59
514.039	15.07
514.241	14.11
514.442	15.14
514.644	15.55
514.845	14.94
515.047	15.38
515.248	15.11
515.45	14.02
515.651	13.79
515.853	14.86
516.054	14.38
516.256	12.8
516.457	14.85
516.658	13.1
516.86	13.35
517.061	13.05
517.262	13.33
517.463	13.62
517.665	12.96
517.866	12.92
518.067	12.39
518.268	13.04
518.469	13.49
518.67	12.49
518.872	12.06
519.073	12.57
519.274	11.97
519.475	11.92
519.676	10.9
519.877	11.75
520.078	11.39
520.279	11.48
520.48	10.56
520.681	10.5
520.881	10.32
521.082	10.95
521.283	10.09
521.484	10.38
521.685	10.57
521.886	10.57
522.086	10.32
522.287	10.12
522.488	9.96
522.689	10.02
522.889	9.66
523.09	8.75
523.291	9.07
523.491	8.98
523.692	8.97
523.892	9.17
524.093	8.75
524.294	8.62
524.494	8.37
524.695	7.9
524.895	8.5
525.096	8.34
525.296	7.89
525.496	8.05
525.697	7.65
525.897	7.13
526.098	7.33
526.298	7.42
526.498	7.46
526.699	7.28
526.899	7.07
527.099	6.57
527.299	6.85
527.499	6.6
527.7	6.7
527.9	6.68
528.1	6.45
528.3	6.4
528.5	6.55
528.7	5.92
528.9	5.58
529.1	6.04
529.3	6.31
529.5	6.4
529.7	5.7
529.9	5.83
530.1	5.51
530.3	5.4
530.5	5.39
530.7	5.71
530.9	5.46
531.1	5.23
531.3	5.36
531.499	4.87
531.699	5.03
531.899	5
532.099	4.94
532.298	4.89
532.498	5.3
532.698	4.69
532.897	4.78
533.097	4.88
533.297	4.52
533.496	4.22
533.696	4.56
533.895	4.57
534.095	4.35
534.294	4.23
534.494	4.21
534.693	4.24
534.893	4.1
535.092	4.45
535.292	3.71
535.491	4.07
535.69	3.58
535.89	3.99
536.089	4.05
536.288	3.58
536.488	3.76
536.687	3.79
536.886	3.59
537.085	3.83
537.285	3.65
537.484	3.83
537.683	3.59
537.882	3.31
538.081	3.53
538.28	3.11
538.479	3.43
538.678	3.27
538.877	3.3
539.076	3.04
539.275	3.67
539.474	2.95
539.673	3.53
539.872	2.9
540.071	3.28
540.27	3.54
540.469	2.81
540.668	3.29
540.867	3.08
541.065	2.79
541.264	2.87
541.463	2.97
541.662	2.54
541.861	3.25
542.059	2.61
542.258	2.89
542.457	3.51
542.655	2.76
542.854	2.88
543.052	2.79
543.251	2.84
543.45	2.64
543.648	2.64
543.847	2.55
544.045	2.37
544.244	2.33
544.442	2.65
544.641	2.56
544.839	2.23
545.037	2.52
545.236	2.63
545.434	2.34
545.632	2.46
545.831	2.25
546.029	2.22
546.227	2.13
546.426	2.15
546.624	2.29
546.822	2.41
547.02	2.02
547.218	2.21
547.417	2.3
547.615	2.3
547.813	2.19
548.011	2.32
548.209	2.44
548.407	2.59
548.605	2.63
548.803	2.19
549.001	2.1
549.199	2.12
549.397	2.54
549.595	2.29
549.793	2.33
549.991	2.22
550.189	2.42
550.387	2.28
550.584	2.2
550.782	1.94
550.98	2.05
551.178	2.19
551.376	2.06
551.573	1.92
551.771	1.89
551.969	2.19
552.166	1.77
552.364	1.95
552.562	1.56
552.759	1.97
552.957	2.13
553.154	1.86
553.352	1.97
553.55	1.8
553.747	1.82
553.945	2.02
554.142	1.91
554.339	1.8
554.537	1.89
554.734	1.66
554.932	1.98
555.129	1.87
555.326	1.96
555.524	1.92
555.721	2.08
555.918	1.96
556.116	1.5
556.313	2.08
556.51	1.69
556.707	2.02
556.904	1.61
557.102	1.72
557.299	1.86
557.496	1.69
557.693	1.77
557.89	1.67
558.087	1.8
558.284	1.35
558.481	2.02
558.678	1.83
558.875	1.6
559.072	1.59
559.269	1.71
559.466	1.44
559.663	1.68
559.86	1.77
560.057	1.73
560.254	1.66
560.45	1.51
560.647	1.55
560.844	1.46
561.041	1.92
561.237	1.55
561.434	1.46
561.631	1.69
561.828	1.56
562.024	1.44
562.221	1.5
562.418	1.84
562.614	1.55
562.811	1.86
563.007	1.73
563.204	1.69
563.4	1.51
563.597	1.62
563.793	1.38
563.99	1.4
564.186	1.52
564.383	1.67
564.579	1.52
564.775	1.54
564.972	1.58
565.168	1.31
565.365	1.52
565.561	1.61
565.757	1.36
565.953	1.37
566.15	1.45
566.346	1.85
566.542	1.37
566.738	1.63
566.934	1.63
567.131	1.32
567.327	1.6
567.523	1.23
567.719	1.37
567.915	1.68
568.111	1.59
568.307	1.7
568.503	1.66
568.699	1.35
568.895	1.6
569.091	1.77
569.287	1.63
569.483	1.56
569.679	1.79
569.875	1.33
570.07	1.56
570.266	1.75
570.462	1.42
570.658	1.32
570.854	1.25
571.049	1.46
571.245	1.46
571.441	1.59
571.636	1.45
571.832	1.58
572.028	1.34
572.223	1.57
572.419	1.36
572.615	1.41
572.81	1.59
573.006	1.32
573.201	1.38
573.397	1.6
573.592	1.48
573.788	1.33
573.983	1.43
574.179	1.32
574.374	1.57
574.569	1.48
574.765	1.41
574.96	1.17
575.156	1.31
575.351	1.19
575.546	1.55
575.741	1.61
575.937	1.43
576.132	1.67
576.327	1.43
576.522	1.4
576.718	1.1
576.913	1.56
577.108	1.34
577.303	1.44
577.498	1.38
577.693	1.34
577.888	1.43
578.083	1.5
578.278	1.36
578.473	1.26
578.668	1.52
578.863	1.32
579.058	1.23
579.253	1.54
579.448	1.4
579.643	1.48
579.838	1.17
580.033	1.52
580.227	1.49
580.422	1.21
580.617	1.49
580.812	1.41
581.006	1.18
581.201	1.58
581.396	1.38
581.591	1.53
581.785	1.41
581.98	1.78
582.175	1.61
582.369	1.55
582.564	1.78
582.758	1.59
582.953	1.41
583.147	1.38
583.342	1.47
583.536	1.53
583.731	1.57
583.925	1.8
584.12	1.72
584.314	1.59
584.509	1.45
584.703	1.36
584.897	1.41
585.092	1.55
585.286	1.72
585.48	1.64
585.674	1.51
585.869	1.46
586.063	1.63
586.257	1.44
586.451	1.57
586.646	1.71
586.84	1.2
587.034	1.53
587.228	1.43
587.422	1.42
587.616	1.39
587.81	1.67
588.004	1.6
588.198	1.54
588.392	1.46
588.586	1.4
588.78	1.59
588.974	1.45
589.168	1.46
589.362	1.63
589.556	1.65
589.75	1.69
589.944	1.65
590.137	1.49
590.331	1.44
590.525	1.79
590.719	1.57
590.913	1.58
591.106	1.81
591.3	1.38
591.494	1.71
591.687	1.61
591.881	1.72
592.075	1.6
592.268	1.64
592.462	1.49
592.655	1.42
592.849	1.46
593.043	1.67
593.236	1.39
593.43	1.44
593.623	1.46
593.817	1.68
594.01	1.34
594.203	1.74
594.397	1.46
594.59	1.69
594.784	1.48
594.977	1.53
595.17	1.64
595.364	1.35
595.557	1.61
595.75	1.75
595.943	1.44
596.137	1.73
596.33	1.66
596.523	1.92
596.716	1.75
596.909	1.93
597.102	1.71
597.296	1.59
597.489	1.81
597.682	1.69
597.875	1.6
598.068	1.54
598.261	1.68
598.454	1.84
598.647	1.58
598.84	1.72
599.033	1.66
599.226	1.77
599.419	1.52
599.611	1.69
599.804	1.86
599.997	1.69
600.19	1.41
600.383	1.77
600.576	1.7
600.768	1.59
600.961	1.5
601.154	1.45
601.347	1.88
601.539	1.71
601.732	1.7
601.925	1.7
602.117	1.81
602.31	1.87
602.502	1.65
602.695	1.62
602.888	1.81
603.08	1.54
603.273	1.8
603.465	1.73
603.658	1.62
603.85	1.78
604.043	1.87
604.235	1.75
604.427	1.87
604.62	1.91
604.812	1.51
605.004	1.96
605.197	1.75
605.389	1.75
605.581	1.88
605.774	1.77
605.966	1.81
606.158	1.87
606.35	1.9
606.543	1.58
606.735	1.98
606.927	1.86
607.119	1.95
607.311	1.9
607.503	1.9
607.695	1.94
607.887	1.93
608.079	2.09
608.271	2.15
608.463	1.76
608.655	1.96
608.847	2.08
609.039	1.98
609.231	2.18
609.423	1.82
609.615	1.92
609.807	1.73
609.999	2.19
610.191	2.13
610.382	2.24
610.574	1.8
610.766	2.18
610.958	2.16
611.15	2.13
611.341	2.33
611.533	2.16
611.725	1.97
611.916	2.08
612.108	2.1
612.3	2.16
612.491	2.07
612.683	2.02
612.874	2.24
613.066	2.18
613.257	2.07
613.449	2.19
613.64	2.05
613.832	2.03
614.023	2.22
614.215	2.1
614.406	2.08
614.598	2.17
614.789	2.23
614.98	2.26
615.172	2.32
615.363	2.28
615.554	2.11
615.746	1.99
615.937	2.24
616.128	2.19
616.319	2.33
616.511	2.03
616.702	2.32
616.893	2.45
617.084	2.43
617.275	2.41
617.466	2.33
617.658	2.41
617.849	2.23
618.04	2.19
618.231	2.45
618.422	2.22
618.613	2.48
618.804	2.41
618.995	2.63
619.186	2.18
619.377	2.3
619.568	2.61
619.758	2.37
619.949	2.44
620.14	2.39
620.331	2.33
620.522	2.51
620.713	2.34
620.903	2.78
621.094	2.44
621.285	2.38
621.476	2.66
621.666	2.5
621.857	2.64
622.048	2.66
622.238	2.5
622.429	2.75
622.62	2.67
622.81	2.63
623.001	2.97
623.191	2.72
623.382	2.67
623.572	2.71
623.763	2.67
623.953	2.91
624.144	2.82
624.334	2.86
624.525	2.75
624.715	2.87
624.905	2.79
625.096	3.05
625.286	2.79
625.477	2.77
625.667	3.05
625.857	2.87
626.047	2.93
626.238	3
626.428	3.12
626.618	3.01
626.808	2.81
626.999	2.78
627.189	2.97
627.379	3.11
627.569	2.97
627.759	3.13
627.949	3.21
628.139	2.73
628.329	3.14
628.519	3.34
628.709	3.17
628.899	2.94
629.089	3.11
629.279	3.08
629.469	3.06
629.659	2.98
629.849	3.31
630.039	3.09
630.229	3.36
630.419	3.13
630.609	3.2
630.798	3.31
630.988	3.29
631.178	3.4
631.368	3.35
631.557	3.35
631.747	3.29
631.937	3.31
632.127	3.27
632.316	3.54
632.506	3.59
632.696	3.62
632.885	3.53
633.075	3.46
633.264	3.49
633.454	3.65
633.643	3.44
633.833	3.41
634.022	3.63
634.212	3.61
634.401	3.84
634.591	3.62
634.78	3.66
634.97	3.66
635.159	3.57
635.348	3.62
635.538	3.65
635.727	3.62
635.916	3.76
636.106	3.9
636.295	3.98
636.484	3.54
636.674	3.87
636.863	3.82
637.052	3.91
637.241	3.92
637.43	4.05
637.619	3.86
637.809	4.08
637.998	4.41
638.187	4.16
638.376	4.1
638.565	4.25
638.754	4.09
638.943	4.13
639.132	4.46
639.321	4.18
639.51	4.17
639.699	3.99
639.888	4.07
640.077	4.1
640.266	3.94
640.455	4.37
640.643	4.37
640.832	4.07
641.021	4.25
641.21	4.17
641.399	4.16
641.587	4.53
641.776	4.28
641.965	4.44
642.154	4.64
642.342	4.38
642.531	4.62
642.72	4.31
642.908	4.69
643.097	4.61
643.286	4.83
643.474	4.96
643.663	4.92
643.851	4.83
644.04	4.5
644.228	4.68
644.417	4.48
644.605	4.8
644.794	4.39
644.982	4.84
645.171	4.72
645.359	4.88
645.547	5.3
645.736	4.72
645.924	4.71
646.112	5
646.301	5.05
646.489	4.91
646.677	5.08
646.866	5.02
647.054	5.2
647.242	5.05
647.43	5.32
647.618	5.38
647.807	5.16
647.995	5.54
648.183	5.48
648.371	5.2
648.559	5.3
648.747	5.32
648.935	5.65
649.123	5.66
649.311	5.54
649.499	5.89
649.687	5.93
649.875	5.45
650.063	5.58
650.251	5.56
650.439	5.76
650.627	5.79
650.815	5.44
651.003	6.02
651.191	5.78
651.378	5.73
651.566	6.1
651.754	5.47
651.942	5.99
652.13	6.11
652.317	5.92
652.505	6.32
652.693	6.04
652.88	6.55
653.068	6.16
653.256	6.3
653.443	6.01
653.631	6.42
653.819	6.34
654.006	6.45
654.194	6.56
654.381	6.45
654.569	6.47
654.756	6.35
654.944	6.62
655.131	6.49
655.319	6.95
655.506	6.77
655.693	6.89
655.881	6.86
656.068	6.74
656.256	7.12
656.443	6.84
656.63	6.9
656.818	7.17
657.005	6.8
657.192	7.27
657.379	6.9
657.567	7.05
657.754	7.3
657.941	7.12
658.128	7.1
658.315	7.28
658.502	7.18
658.69	7.15
658.877	7.39
659.064	7.44
659.251	7.22
659.438	7.77
659.625	7.49
659.812	7.37
659.999	7.74
660.186	7.61
660.373	7.88
660.56	7.67
660.747	8
660.934	8.01
661.121	7.92
661.308	8.09
661.494	8.04
661.681	8.16
661.868	8.33
662.055	8.11
662.242	7.9
662.428	8.5
662.615	8.52
662.802	8.66
662.989	8.87
663.175	9.17
663.362	9.07
663.549	9.2
663.735	8.85
663.922	9.39
664.109	9.11
664.295	8.93
664.482	9.19
664.668	8.85
664.855	9.15
665.041	9.37
665.228	9.26
665.414	9.74
665.601	9.2
665.787	9.32
665.974	9.13
666.16	9.36
666.347	9.29
666.533	9.23
666.719	9.46
666.906	9.57
667.092	9.73
667.278	9.58
667.465	9.49
667.651	10
667.837	9.57
668.023	9.95
668.21	9.99
668.396	9.76
668.582	9.64
668.768	9.56
668.954	9.84
669.14	9.96
669.327	10.23
669.513	10.53
669.699	10.26
669.885	10.36
670.071	10.77
670.257	10.91
670.443	10.78
670.629	11.16
670.815	10.64
671.001	10.5
671.187	10.52
671.373	10.74
671.559	10.64
671.744	10.76
671.93	10.78
672.116	11.33
672.302	11.44
672.488	11.34
672.674	11.68
672.859	11.78
673.045	11.59
673.231	11.44
673.417	11.51
673.602	11.72
673.788	11.57
673.974	11.63
674.159	11.36
674.345	11.65
674.531	11.96
674.716	11.8
674.902	11.54
675.087	12.44
675.273	11.78
675.459	12.56
675.644	12.13
675.83	11.76
676.015	12
676.2	11.8
676.386	12.47
676.571	12.08
676.757	12.1
676.942	12.24
677.128	12.35
677.313	12.24
677.498	12.07
677.684	12.01
677.869	12.41
678.054	12.46
678.24	12.61
678.425	13.17
678.61	12.58
678.795	12.8
678.98	12.9
679.166	13.2
679.351	13.15
679.536	13.23
679.721	13.07
679.906	13.29
680.091	12.87
680.276	13.22
680.461	13.68
680.647	13.56
680.832	13.62
681.017	13.68
681.202	14
681.387	13.78
681.572	13.69
681.756	13.85
681.941	13.85
682.126	13.9
682.311	13.41
682.496	13.66
682.681	13.72
682.866	13.86
683.051	13.9
683.235	13.84
683.42	14.25
683.605	14.18
683.79	14.53
683.974	14.54
684.159	14.18
684.344	14.2
684.529	14.47
684.713	14.6
684.898	14.32
685.083	14.35
685.267	14.44
685.452	14.99
685.636	14.76
685.821	15.33
686.005	14.89
686.19	14.92
686.375	15.17
686.559	15.15
686.744	14.45
686.928	14.99
687.112	14.7
687.297	14.45
687.481	14.32
687.666	14.45
687.85	14.71
688.034	14.65
688.219	14.83
688.403	14.78
688.587	14.68
688.772	14.59
688.956	15.03
689.14	15.11
689.324	15.7
689.509	15.22
689.693	14.94
689.877	14.89
690.061	15.38
690.245	14.94
690.43	15.33
690.614	15.22
690.798	14.69
690.982	14.94
691.166	15.34
691.35	15.33
691.534	15.14
691.718	15.18
691.902	15.05
692.086	14.59
692.27	15.1
692.454	14.94
692.638	15.39
692.822	15.68
693.006	15.63
693.19	15.75
693.373	15.8
693.557	15.91
693.741	15.86
693.925	15.8
694.109	15.5
694.293	15.49
694.476	15.57
694.66	16.27
694.844	15.6
695.027	15.93
695.211	16.02
695.395	15.59
695.578	16.17
695.762	15.82
695.946	16.05
696.129	15.88
696.313	16.11
696.497	16.3
696.68	15.97
696.864	15.91
697.047	15.81
697.231	15.82
697.414	15.04
697.598	15.24
697.781	15.21
697.965	15
698.148	14.76
698.331	15.15
698.515	15.61
698.698	15.91
698.881	15.43
699.065	15.59
699.248	15.74
699.431	16.05
699.615	15.47
699.798	15.92
699.981	15.99
700.165	15.63
700.348	15.47
700.531	15.77
700.714	15.6
700.897	15.56
701.08	15.26
701.264	15.3
701.447	15.35
701.63	15.76
701.813	16.1
701.996	15.62
702.179	15.91
702.362	15.89
702.545	16.39
702.728	16.43
702.911	16.01
703.094	16.03
703.277	16.62
703.46	16.44
703.643	16.16
703.826	16.35
704.009	16.11
704.191	15.98
704.374	16.09
704.557	15.96
704.74	15.91
704.923	15.61
705.106	15.66
705.288	15.31
705.471	15.57
705.654	15.74
705.837	15.48
706.019	15.46
706.202	16.15
706.385	16.56
706.567	15.53
706.75	15.55
706.932	15.73
707.115	15.79
707.298	15.32
707.48	15.46
707.663	14.96
707.845	15.46
708.028	15.53
708.21	15.57
708.393	15.72
708.575	15.6
708.758	15.8
708.94	16.16
709.123	15.91
709.305	16.01
709.487	15.71
709.67	15.98
709.852	16.18
710.034	16.23
710.217	15.61
710.399	15.63
710.581	15.64
710.764	15.9
710.946	15.77
711.128	15.84
711.31	15.26
711.492	15.34
711.675	15.78
711.857	15.41
712.039	15.79
712.221	15.56
712.403	15.24
712.585	15.18
712.767	15.35
712.949	15.68
713.131	15.91
713.314	16.09
713.496	15.51
713.678	15.44
713.86	15.36
714.041	15.87
714.223	15.41
714.405	15.24
714.587	15.27
714.769	15.19
714.951	15.17
715.133	15.39
715.315	15.6
715.497	16.15
715.678	15.72
715.86	16.05
716.042	15.72
716.224	15.56
716.406	15.74
716.587	15.6
716.769	15.06
716.951	15.7
717.132	15.4
717.314	15.28
717.496	15.02
717.677	15.37
717.859	15.5
718.041	15.32
718.222	14.9
718.404	14.61
718.585	15.25
718.767	14.84
718.948	15.24
719.13	15.4
719.311	15.07
719.493	15.61
719.674	15.82
719.856	15.67
720.037	15.06
720.219	15.2
720.4	15.21
720.581	15.28
720.763	15.24
720.944	15.51
721.125	15.15
721.307	15.01
721.488	15.16
721.669	14.88
721.85	15
722.032	14.36
722.213	14.77
722.394	14.82
722.575	14.71
722.756	15.38
722.938	14.94
723.119	14.79
723.3	14.18
723.481	14.84
723.662	14.92
723.843	15.15
724.024	14.48
724.205	15.06
724.386	14.98
724.567	14.19
724.748	14.83
724.929	15.36
725.11	14.91
725.291	15.42
725.472	15.35
725.653	15.18
725.834	15.2
726.015	14.88
726.196	14.65
726.377	14.5
726.557	14.78
726.738	15.13
726.919	14.81
727.1	15.15
727.281	14.98
727.461	15.12
727.642	15.16
727.823	14.69
728.004	15.08
728.184	15.34
728.365	15.37
728.546	14.81
728.726	14.53
728.907	14.39
729.087	14.69
729.268	14.94
729.449	14.12
729.629	14.6
729.81	14.92
729.99	14.4
730.171	13.91
730.351	14.04
730.532	13.82
730.712	14.16
730.893	14.04
731.073	13.67
731.253	13.66
731.434	13.65
731.614	13.8
731.795	13.28
731.975	14.15
732.155	14.18
732.336	14.6
732.516	14.06
732.696	13.86
732.876	14.05
733.057	14.11
733.237	13.32
733.417	13.88
733.597	13.7
733.778	13.76
733.958	13.32
734.138	13.69
734.318	14.13
734.498	13.59
734.678	13.34
734.858	13.92
735.038	14.26
735.218	14.19
735.398	14.09
735.579	14.56
735.759	14.16
735.939	13.91
736.119	13.78
736.298	14.51
736.478	14.16
736.658	13.54
736.838	14
737.018	13.91
737.198	14.38
737.378	13.69
737.558	14.52
737.738	14.49
737.917	14.1
738.097	13.92
738.277	14.21
738.457	13.99
738.637	13.87
738.816	13.31
738.996	13.58
739.176	13.39
739.355	13.58
739.535	13.65
739.715	14.01
739.894	13.47
740.074	13.38
740.254	13.33
740.433	13.78
740.613	13.58
740.792	13.35
740.972	13.63
741.151	13.63
741.331	13.43
741.51	13.48
741.69	13.37
741.869	14.21
742.049	14.03
742.228	14
742.408	13.62
742.587	14.25
742.766	13.94
742.946	13.95
743.125	13.93
743.305	13.98
743.484	14.05
743.663	13.75
743.842	14.03
744.022	13.77
744.201	13.74
744.38	12.95
744.56	13.6
744.739	13.52
744.918	14.01
745.097	14.05
745.276	13.37
745.455	13.35
745.635	13.54
745.814	13.22
745.993	14.06
746.172	13.57
746.351	14.53
746.53	13.92
746.709	13.84
746.888	13.67
747.067	13.59
747.246	13.58
747.425	13.7
747.604	13.7
747.783	13.49
747.962	13.58
748.141	13.92
748.32	13.96
748.499	14.34
748.677	13.47
748.856	13.54
749.035	13.83
749.214	13.83
749.393	13.98
749.572	13.46
749.75	13.35
749.929	13.89
750.108	14.18
750.287	13.92
750.465	13.99
750.644	14.27
750.823	14.27
751.001	13.15
751.18	12.78
751.359	13.49
751.537	13.63
751.716	13.04
751.894	12.79
752.073	13.4
752.251	12.61
752.43	13.39
752.609	13.99
752.787	13.35
752.966	14.01
753.144	13.16
753.322	12.71
753.501	13.24
753.679	13.19
753.858	13.12
754.036	12.67
754.215	12.95
754.393	12.41
754.571	12.34
754.75	12.66
754.928	13.12
755.106	12.97
755.284	13.07
755.463	13.55
755.641	12.73
755.819	13.48
755.997	13.67
756.176	13.42
756.354	13.99
756.532	13.86
756.71	13.46
756.888	12.74
757.066	13.58
757.245	13.4
757.423	12.65
757.601	12.57
757.779	12.82
757.957	13.35
758.135	13.5
758.313	12.93
758.491	12.59
758.669	13.2
758.847	12.67
759.025	12.49
759.203	13.2
759.381	13.04
759.559	12.8
759.737	13.32
759.915	12.92
760.092	13.06
760.27	13.03
760.448	12.88
760.626	12.64
760.804	13.14
760.981	12.58
761.159	13.06
761.337	12.39
761.515	13.38
761.692	13.02
761.87	12.86
762.048	12.16
762.226	11.94
762.403	12.37
762.581	12.68
762.759	12.59
762.936	13.16
763.114	13.34
763.291	12.8
763.469	12.99
763.647	13.13
763.824	12.8
764.002	13.18
764.179	13.59
764.357	13.4
764.534	12.73
764.712	12.87
764.889	12.62
765.066	12.48
765.244	11.59
765.421	12.27
765.599	12.49
765.776	12.43
765.953	12.41
766.131	12.19
766.308	12.37
766.485	12.37
766.663	12.48
766.84	12.25
767.017	12.58
767.194	12.52
767.372	12.4
767.549	12.54
767.726	12.88
767.903	13.09
768.081	12.42
768.258	13.16
768.435	12.76
768.612	12.87
768.789	12.7
768.966	12.76
769.143	12.33
769.32	13.17
769.497	13.3
769.674	12.74
769.851	12
770.028	12.82
770.205	12.63
770.382	12.87
770.559	13
770.736	12.98
770.913	13.03
771.09	13.57
771.267	12.88
771.444	13.09
771.621	13.19
771.798	13.12
771.975	12.97
772.151	13.66
772.328	14.05
772.505	13.22
772.682	13
772.859	13.61
773.035	12.84
773.212	12.85
773.389	12.22
773.565	12.89
773.742	12.49
773.919	12.87
774.096	11.93
774.272	12.12
774.449	11.47
774.625	11.62
774.802	12.23
774.979	13.78
775.155	12.57
775.332	12.89
775.508	13.86
775.685	12.32
775.861	13
776.038	12.97
776.214	12.07
776.391	13.26
776.567	12.94
776.744	12.8
776.92	13
777.096	12.06
777.273	12.26
777.449	12.61
777.626	11.09
777.802	12.26
777.978	12.92
778.155	12.16
778.331	12.46
778.507	11.86
778.683	11.87
778.86	11.81
779.036	12.5
779.212	12.93
779.388	11.85
779.565	11.66
779.741	12.14
779.917	12.05
780.093	11.7
780.269	11.29
780.445	10.95
780.621	11.63
780.797	10.9
780.974	11.17
781.15	11.95
781.326	11.31
781.502	11.98
781.678	12.54
781.854	11.62
782.03	11.58
782.206	12.65
782.382	11.24
782.558	13
782.733	12.09
782.909	13.17
783.085	12.19
783.261	12.61
783.437	10.97
783.613	11.58
783.789	12.38
783.965	11.65
784.14	11.35
784.316	11.21
784.492	11.95
784.668	11.98
784.843	10.83
785.019	12.71
785.195	10.31
785.371	12.44
785.546	12.46
785.722	13.54
785.898	10.44
786.073	12.88
786.249	13.28
786.424	12.47
786.6	12.31
786.776	12.07
786.951	10.46
787.127	13.06
787.302	12.06
787.478	10.98
787.653	12.03
787.829	10.91
788.004	11.27
788.18	13.31
788.355	11.46
788.531	10.32
788.706	12.88
788.881	12.16
789.057	13.06
789.232	10.7
789.408	14.11
789.583	12.38
789.758	11.89
789.934	10.92
790.109	11.29
790.284	13.28
790.459	12.01
790.635	11.92
790.81	11.02
790.985	12.84
791.16	12.1
791.336	12.15
791.511	11.57
791.686	12.84
791.861	12.12
792.036	12.73
792.211	9.61
792.387	10.75
792.562	11.23
792.737	10.59
792.912	8.42
793.087	13.41
793.262	9.56
793.437	11.17
793.612	12.76
793.787	10.37
793.962	11.03
794.137	11.63
794.312	11.45
794.487	12.31
794.662	11.12
794.837	11.26
795.011	10.09
795.186	14.32
795.361	11.85
795.536	11
795.711	11.09
795.886	10.05
796.06	9.66
796.235	12.12
796.41	9.57
796.585	13.23
796.76	9.46
796.934	10.95
797.109	12.67
797.284	11.18
797.458	10.73
797.633	11.73
797.808	11.5
797.982	10.07
798.157	10.49
798.332	11.03
798.506	8.32
798.681	10.39
798.855	14.02
799.03	11.43
799.204	13.45
799.379	11.62
799.553	9.8
799.728	8.43
799.902	8.57
800.077	8.95
800.251	12.42
800.426	11.05
800.6	12.82
800.775	9.02
800.949	11.14
801.123	9.76
801.298	13.24
801.472	10.84
801.647	9.9
801.821	9.94
801.995	10.04
802.169	10.31
802.344	11.49
802.518	12.35
802.692	7.28
802.867	12.29
803.041	10.76
803.215	12.27
803.389	11.87
803.563	10.1
803.737	11.26
803.912	13.16
804.086	12.36
804.26	12.17
804.434	12.83
804.608	9.02
804.782	11.9
804.956	11.45
805.13	14.92
805.304	7.73
805.478	14.4
805.652	11.53
805.826	17.78
806	12.94
806.174	12.27
806.348	11.73
806.522	11.6
806.696	10.37
806.87	9.72
807.044	10.5
807.218	12.83
807.392	12.13
807.566	12.08
807.739	12.32
807.913	11.61
808.087	11.28
808.261	7.24
808.435	11.74
808.608	7.92
808.782	8.73
808.956	7.2
809.13	7.27
809.303	10.89
809.477	10.76
809.651	12.4
809.824	8.22
809.998	9.99
810.172	8.62
810.345	12.22
810.519	9.59
810.692	10.95
810.866	10.15
811.04	10.65
811.213	13.22
811.387	10.04
811.56	12.85
811.734	12.53
811.907	9.92
812.081	9.92
812.254	9.56
812.428	11.78
812.601	9.46
812.774	12.86
812.948	10.69
813.121	15.95
813.295	11.45
813.468	12.85
813.641	5.27
813.815	9.69
813.988	9.69
814.161	10.6
814.335	13.06
814.508	10.09
814.681	9.88
814.854	10.17
815.028	12.71
815.201	9.13
815.374	9.76
815.547	9.29
815.72	12.08
815.894	15.33
816.067	10.36
816.24	9.55
816.413	12.95
816.586	13.26
816.759	10.69
816.932	6.66
817.105	15.84
817.278	9.36
817.452	12.44
817.625	11.51
817.798	8.61
817.971	12.49
818.144	10.01
818.317	14.85
818.49	8.63
818.662	11.36
818.835	11.35
819.008	11.05
819.181	12.69
819.354	8.41
819.527	12.66
819.7	5.98
819.873	12.51
820.046	13.83
820.218	9.49
820.391	14.01
820.564	13.79
820.737	9.33
820.909	10.84
821.082	9.3
821.255	10.37
821.428	12.85
821.6	10.11
821.773	12.97
821.946	11.39
822.118	10.41
822.291	10.98
822.464	8.04
822.636	10.36
822.809	9.21
822.982	12.25
823.154	11.05
823.327	9.95
823.499	7.23
823.672	12.96
823.844	7.28
824.017	11.45
824.189	12.17
824.362	12.28
824.534	10.99
824.707	11.61
824.879	13.49
825.052	8.75
825.224	12.28
825.396	10.63
825.569	13.04
825.741	11.92
825.914	12.34
826.086	12.36
826.258	11.98
826.431	15.55
826.603	11.69
826.775	13.2
826.947	8.39
827.12	16.91
827.292	11.27
827.464	7.82
827.636	12.74
827.809	12.91
827.981	13.17
828.153	10.96
828.325	10.86
828.497	11.62
828.669	11.08
828.842	7.15
829.014	11.13
829.186	9.36
829.358	10.54
829.53	12.67
829.702	12.7
829.874	10.92
830.046	10.63
830.218	14.15
830.39	9.38
830.562	14.2
830.734	12.93
830.906	10.3
831.078	9.76
831.25	11.31
831.422	6.44
831.594	12.8
831.766	12.97
831.937	8.73
832.109	15.57
832.281	10.46
832.453	7.58
832.625	8.42
832.797	13.2
832.968	10.9
833.14	14.48
833.312	10
833.484	11.26
833.655	7.85
833.827	8.8
833.999	12.87
834.171	10.98
834.342	10.94
834.514	10.67
834.686	11.43
834.857	10.5
835.029	10.5
835.2	7.72
835.372	7.87
835.544	9.93
835.715	13.54
835.887	9.34
836.058	8.54
836.23	10.92
836.401	12.24
836.573	13.32
836.744	8.03
836.916	5.78
837.087	4.69
837.259	10.24
837.43	11.63
837.602	10.37
837.773	11.22
837.945	7.43
838.116	8.92
838.287	4.08
838.459	13.04
838.63	8.71
838.801	12.38
838.973	7.19
839.144	10.37
839.315	11.88
839.487	12.15
839.658	15.43
839.829	10.8
840	11.69
840.172	13.07
840.343	10.7
840.514	13.2
840.685	12.73
840.856	11.4
841.027	11.94
841.199	12.84
841.37	9.74
841.541	9.57
841.712	14.81
841.883	12.56
842.054	8.31
842.225	11.21
842.396	12.68
842.567	6.93
842.738	9.71
842.909	13.14
843.08	7.24
843.251	5.69
843.422	8.36
843.593	9.31
843.764	8.16
843.935	10.32
844.106	11.34
844.277	12.5
844.448	15.9
844.619	9.14
844.79	15.2
844.96	10
845.131	10.49
845.302	6.96
845.473	13.47
845.644	10.73
845.814	7.65
845.985	11.34
846.156	7.31
846.327	11.03
846.497	2.72
846.668	9.25
846.839	10.44
847.01	10.11
847.18	11.95
847.351	10.1
847.522	9.02
847.692	14.71
847.863	9.97
848.033	11.38
848.204	9.69
848.375	0.72
848.545	13.19
848.716	10
848.886	6.66
849.057	8.48
849.227	10.84
849.398	8.59
849.568	6.3
849.739	9.88
849.909	9.73
850.08	12.68
850.25	8.36
850.421	2.64
850.591	8.09
850.761	7.93
850.932	5.54
851.102	6.75
851.272	13.52
851.443	9.14
851.613	6.75
851.783	10.78
851.954	6.41
852.124	12.72
852.294	6.02
852.465	12.72
852.635	5.82
852.805	13.2
852.975	0.93
853.145	4.1
853.316	12
853.486	6.81
853.656	10.21
853.826	6.96
853.996	10.91
854.166	4.4
854.337	6.91
854.507	11.91
854.677	10.72
854.847	17.06
855.017	8.48
855.187	12.93
855.357	1.83
855.527	8.15
855.697	8.8
855.867	7.88
856.037	8.09
856.207	11.79
856.377	7.67
856.547	13.93
856.717	7.35
856.887	8.53
857.057	12.88
857.227	13.75
857.397	17.08
857.566	12.63
857.736	7.32
857.906	7.82
858.076	8.36
858.246	8.36
858.416	6.66
858.585	8.27
858.755	11.45
858.925	7
859.095	12.7
859.264	13.72
859.434	4.47
859.604	14.85
859.774	2.82
859.943	10.6
860.113	2.76
860.283	12.32
860.452	6.07
860.622	8.24
860.791	12.21
860.961	15.86
861.131	2.79
861.3	8.9
861.47	8.15
861.639	6.96
861.809	10.94
861.978	10.99
862.148	7.67
862.318	10.03
862.487	6.68
862.657	6.8
862.826	10.01
862.995	10.01
863.165	7.14
863.334	7.64
863.504	8.41
863.673	3.2
863.843	3.93
864.012	16.03
864.181	12.15
864.351	9.63
864.52	7.25
864.689	-0.65
864.859	6.02
865.028	2.75
865.197	-2.34
865.366	17.66
865.536	13.25
865.705	9.41
865.874	6.89
866.043	6.5
866.213	6.14
866.382	5.04
866.551	3.69
866.72	11.65
866.889	9.72
867.059	-1.8
867.228	12.02
867.397	11.93
867.566	4.81
867.735	14.12
867.904	4.85
868.073	8.56
868.242	19.53
868.411	7.18
868.58	12.03
868.749	9.16
868.918	6.1
869.087	10.01
869.256	6.5
869.425	9.62
869.594	7.36
869.763	10.4
869.932	9.84
870.101	-3.07
870.27	7.83
870.439	6.64
870.608	4.25
870.777	5.99
870.945	6.22
871.114	16.37
871.283	5.61
871.452	8.93
871.621	13.84
871.789	7.53
871.958	11.08
872.127	7.13
872.296	4.97
872.464	7.01
872.633	12.63
872.802	15.24
872.971	13.9
873.139	3.9
873.308	-1.01
873.477	4.33
873.645	-1.06
873.814	11.56
873.983	4.81
874.151	14.17
874.32	12.92
874.488	8.45
874.657	9.14
874.826	21.73
874.994	17.84
875.163	14.53
875.331	15.7
875.5	2.74
875.668	5.34
875.837	10.36
876.005	4.91
876.174	14.31
876.342	16.45
876.51	17.21
876.679	14.05
876.847	9.93
877.016	1.27
877.184	-0.65
877.352	2.44
877.521	9.14
877.689	2.94
877.857	6.16
878.026	8.8
878.194	9.44
878.362	8.54
878.531	-4.45
878.699	1.94
878.867	7.36
879.036	6.14
879.204	6.16
879.372	9.52
879.54	0.94
879.708	22.84
879.877	4.49
880.045	18.56
880.213	11.6
880.381	6.93
880.549	24.02
880.717	10.85
880.885	17.88
881.054	4.64
881.222	9.39
881.39	14.99
881.558	18.53
881.726	2.48
881.894	5.48
882.062	5.69
882.23	12.41
882.398	10.86
882.566	-1.92
882.734	4.29
882.902	15.56
883.07	7.92
883.238	4.12
883.406	7.02
883.574	-8.97
883.741	21.04
883.909	-3.66
884.077	8.83
884.245	8.36
884.413	-10.23
884.581	7.63
884.749	10.78
884.916	3.35
885.084	13.53
885.252	15.89
885.42	12.29
885.587	25.75
885.755	7.82
885.923	-4.13
886.091	2.42
886.258	15.44
886.426	-0.43
886.594	-0.1
886.761	3.62
886.929	20.01
887.097	3.39
887.264	5.17
887.432	7.4
887.6	-7.6
887.767	11.55
887.935	13.76
888.102	-13.01
888.27	4.23
888.438	10.35
888.605	-9.99
888.773	25.61
888.94	22.18
889.108	2.89
889.275	17.72
889.443	8.57
889.61	8.07
889.778	3.2
889.945	-0.12
890.112	10.76
890.28	1.44
890.447	15.76
890.615	11.29
890.782	6.22
890.949	5.34
891.117	-7.63
891.284	17.89
891.452	-8.18
891.619	21.83
891.786	13.94
891.953	17.98
892.121	18.73
892.288	11.11
892.455	18.88
892.623	9.1
892.79	7.05
892.957	0.92
893.124	21.74
893.291	8.87
893.459	25.04
893.626	13.46
893.793	2.67
893.96	-0.1
894.127	-1.8
894.294	21.31
894.461	-11.69
894.629	19.75
894.796	-3.41
894.963	6.81
895.13	17.13
895.297	-1.93
895.464	18.12
895.631	-1.82
895.798	20.51
895.965	2.71
896.132	5.42
896.299	24.87
896.466	15.81
896.633	8.54
896.8	1.78
896.967	8.91
897.134	3.1
897.301	-17.73
897.467	14.63
897.634	13.63
897.801	19.85
897.968	16.66
898.135	8.43
898.302	4.21
898.469	5.71
898.635	8.7
898.802	18.08
898.969	16.23
899.136	10.06
899.303	4.77
