Data from x0_Transmission_15-11-24-512.txt Node
Date: Thu May 02 15:11:24 EDT 2019
User: dh1006
Spectrometer: USB4E01358
Autoset integration time: false
Trigger mode: 4
Integration Time (sec): 8.000000E-2
Scans to average: 1
Electric dark correction enabled: true
Nonlinearity correction enabled: false
Boxcar width: 0
Stray light correction enabled: false
XAxis mode: Wavelengths
Stop averaging: false
Number of Pixels in Spectrum: 3648
>>>>>Begin Spectral Data<<<<<
176.727	-276.67
176.966	-276.67
177.205	-276.67
177.444	426.4
177.683	57.23
177.922	48.78
178.161	151.85
178.4	-177
178.638	7675
178.877	-7.25
179.116	377.89
179.355	-745.45
179.593	-7.17
179.832	63.87
180.071	101.17
180.309	55.56
180.548	55.81
180.786	9.66
181.025	-9550
181.263	-24.14
181.502	156.3
181.74	58.18
181.979	32.86
182.217	-78.03
182.456	21.92
182.694	39.56
182.932	85.48
183.17	88.91
183.409	-206.8
183.647	82.79
183.885	528.42
184.123	79.18
184.361	200
184.6	11.93
184.838	2222.22
185.076	292.86
185.314	-37.91
185.552	-35.38
185.79	-34.94
186.028	49.94
186.266	9.24
186.503	-119.3
186.741	126.54
186.979	56.64
187.217	-10850
187.455	-149.58
187.693	5.71
187.93	21.27
188.168	308.33
188.406	46.53
188.643	24.51
188.881	-101.45
189.119	-59.18
189.356	-413.89
189.594	136.18
189.831	28.1
190.069	157.76
190.306	-92.4
190.543	70
190.781	54.98
191.018	3.41
191.256	29.51
191.493	-19.66
191.73	-77.16
191.967	385.71
192.205	-82.61
192.442	-49.14
192.679	7675
192.916	-303.75
193.153	206.52
193.39	-821.43
193.628	373.33
193.865	136.12
194.102	-212.7
194.339	-23.23
194.576	-81.59
194.813	74.77
195.049	191.88
195.286	93.8
195.523	91.24
195.76	-92.69
195.997	11.29
196.234	-128.53
196.47	32.81
196.707	180.6
196.944	-119.41
197.18	49.19
197.417	-69.14
197.654	-3.54
197.89	8.82
198.127	33.86
198.363	-233.33
198.6	8.05
198.836	-65.78
199.073	-25.94
199.309	27.84
199.546	17
199.782	-118.87
200.018	-146.67
200.255	98.65
200.491	-616.28
200.727	85.96
200.963	-38.56
201.199	-33.07
201.436	302.25
201.672	-57.27
201.908	42.23
202.144	3.82
202.38	-101.05
202.616	1.49
202.852	-27.39
203.088	-7.25
203.324	-128.42
203.56	-671.95
203.796	97.03
204.032	52.79
204.268	-477.08
204.503	200
204.739	57.23
204.975	-52.33
205.211	96
205.446	60.62
205.682	56.37
205.918	-374.42
206.153	-34.28
206.389	265
206.625	23.1
206.86	58.18
207.096	216.25
207.331	100.65
207.567	-142.47
207.802	85.03
208.037	7.83
208.273	-31.36
208.508	-221.3
208.744	-47.08
208.979	48.66
209.214	-1425
209.449	16.97
209.685	-119.41
209.92	-153.18
210.155	47.06
210.39	-81.97
210.625	-55.36
210.86	49.8
211.095	231.86
211.33	72.32
211.565	-161.11
211.8	-173.56
212.035	49.59
212.27	77.68
212.505	-67.38
212.74	5.33
212.975	2209.09
213.21	61.89
213.444	73.56
213.679	-18.61
213.914	-28.24
214.149	-14.74
214.383	33.17
214.618	-2.58
214.853	18.22
215.087	-23.66
215.322	109.12
215.556	-113.57
215.791	200
216.025	-380.17
216.26	22.19
216.494	182.43
216.729	561.11
216.963	-16.06
217.197	29.13
217.432	59.13
217.666	-53.66
217.9	3.03
218.135	20.29
218.369	7422.22
218.603	281.74
218.837	59.67
219.071	230.47
219.306	52.22
219.54	75.87
219.774	11.96
220.008	153.29
220.242	-670.25
220.476	888.24
220.71	-10.61
220.944	178.98
221.178	-21.95
221.411	-113.79
221.645	12.34
221.879	60.3
222.113	-536.67
222.347	35.21
222.58	-6.35
222.814	-14.59
223.048	-437.96
223.281	15.75
223.515	752.21
223.749	-190
223.982	97.46
224.216	525
224.449	-125
224.683	-93.86
224.916	-125
225.15	18.89
225.383	187
225.617	36.46
225.85	42.95
226.083	296.09
226.317	86.55
226.55	-15.58
226.783	272.22
227.016	70.55
227.25	645.71
227.483	-426.79
227.716	16.83
227.949	-47.76
228.182	-30.38
228.415	-63.29
228.648	-336.25
228.881	79.38
229.114	2.25
229.347	173.09
229.58	473
229.813	21.77
230.046	37.5
230.279	21.83
230.512	37.75
230.745	-36.23
230.977	78.13
231.21	66.8
231.443	-58.2
231.675	-45.8
231.908	1117.65
232.141	50.96
232.373	-703.16
232.606	-268.71
232.839	-21.89
233.071	-221.78
233.304	-149.62
233.536	-60
233.769	74.19
234.001	60.05
234.233	-257.41
234.466	15.44
234.698	117.16
234.93	34.14
235.163	34.64
235.395	411.63
235.627	-105.3
235.86	200
236.092	137.31
236.324	56.88
236.556	48.84
236.788	32.93
237.02	97.46
237.252	-22.43
237.484	62.29
237.716	-840
237.948	15.51
238.18	178.51
238.412	95.48
238.644	113.67
238.876	13.13
239.108	-137.34
239.34	263.93
239.571	-187.72
239.803	-26.58
240.035	195.59
240.267	106.29
240.498	344.44
240.73	626.23
240.962	-22.11
241.193	171.84
241.425	25.59
241.656	162.59
241.888	86.96
242.119	-9.93
242.351	-1493.02
242.582	40.57
242.814	-79.34
243.045	109.72
243.277	-71.64
243.508	147.3
243.739	102.31
243.971	13.69
244.202	21.39
244.433	124.86
244.664	71.1
244.896	-87.97
245.127	-10.25
245.358	-682.14
245.589	109.83
245.82	361.1
246.051	7.62
246.282	35.97
246.513	24.72
246.744	27.36
246.975	-323.17
247.206	101.32
247.437	-30.7
247.668	-305.56
247.899	23.09
248.129	-51.88
248.36	-100.23
248.591	-24.44
248.822	34.14
249.052	-275.37
249.283	-4.16
249.514	37.36
249.744	7.01
249.975	35.44
250.206	101.05
250.436	6.38
250.667	377.7
250.897	-9.07
251.128	-17.13
251.358	217.57
251.589	73.61
251.819	104.05
252.049	40.43
252.28	67.64
252.51	-53.66
252.74	32.67
252.971	-3050
253.201	74.56
253.431	-33.24
253.661	-192.45
253.891	118.75
254.121	-53.27
254.352	-2.22
254.582	-1025.71
254.812	54.98
255.042	17.09
255.272	25.98
255.502	-22.55
255.732	-1966.67
255.962	93.44
256.192	67.26
256.421	54.13
256.651	60.09
256.881	-83.11
257.111	105.58
257.341	40.88
257.57	148.76
257.8	54.89
258.03	70.8
258.259	55.35
258.489	12.86
258.719	37.18
258.948	-2.42
259.178	13.86
259.407	292.04
259.637	-35.24
259.866	-295.63
260.096	-93.97
260.325	19.65
260.555	205.46
260.784	26.34
261.013	-287.5
261.243	11.17
261.472	463.51
261.701	20.89
261.931	-16.67
262.16	142.05
262.389	-21.07
262.618	-85.61
262.847	-24.5
263.076	67.8
263.305	-76.38
263.535	-155.66
263.764	65.98
263.993	69.15
264.222	35.61
264.451	-134.85
264.679	64.08
264.908	37.5
265.137	31.63
265.366	9.55
265.595	51.75
265.824	-38.53
266.053	12.18
266.281	-326.01
266.51	-57.36
266.739	28.5
266.967	24.23
267.196	525
267.425	-1.27
267.653	11.45
267.882	10.74
268.11	437.3
268.339	27.89
268.567	-419.34
268.796	-29.41
269.024	-101.79
269.253	-45.67
269.481	113.06
269.709	-3.27
269.938	21.35
270.166	33.01
270.394	-37.08
270.623	75.21
270.851	-126.9
271.079	54.26
271.307	22.62
271.535	41.74
271.764	-3.12
271.992	190.78
272.22	-5.26
272.448	51.75
272.676	-31.87
272.904	96.9
273.132	-19.84
273.36	55.1
273.588	-45.62
273.816	46.36
274.043	-22.17
274.271	106.2
274.499	228.89
274.727	-40.74
274.955	-1.41
275.182	-14.74
275.41	-72.58
275.638	204.69
275.866	1527.08
276.093	135.38
276.321	114.15
276.548	44.51
276.776	30.07
277.003	32.48
277.231	237.14
277.458	-88.89
277.686	53.75
277.913	70
278.141	28.75
278.368	-15.09
278.595	27.71
278.823	-782.93
279.05	-20.58
279.277	8.5
279.505	-91.38
279.732	-110.76
279.959	1351.43
280.186	-49.14
280.413	12.63
280.641	139.88
280.868	-34.94
281.095	85.29
281.322	-926.67
281.549	-29.72
281.776	13.27
282.003	68.6
282.23	-60
282.457	165.88
282.683	87.09
282.91	-11.25
283.137	41.64
283.364	2031.82
283.591	150.84
283.818	1175
284.044	411.63
284.271	102.33
284.498	71.29
284.724	29.29
284.951	39.82
285.178	73.32
285.404	39.8
285.631	64.72
285.857	-36.98
286.084	22.17
286.31	1.45
286.537	-4.16
286.763	-6.61
286.99	-62.9
287.216	4966.67
287.442	-180.27
287.669	21.1
287.895	75.26
288.121	284.17
288.347	74.37
288.574	2.87
288.8	-9.32
289.026	150.76
289.252	148.51
289.478	-178.36
289.704	9.98
289.931	28.95
290.157	37.8
290.383	-17.13
290.609	-27.56
290.835	-32.52
291.06	35.03
291.286	-4.72
291.512	132.37
291.738	50.23
291.964	35.72
292.19	-373.53
292.416	116.13
292.641	97.79
292.867	120.15
293.093	534.29
293.319	-0.68
293.544	-65.91
293.77	-86.56
293.995	-39.63
294.221	-60
294.447	-8.19
294.672	85.29
294.898	69.05
295.123	71.32
295.349	-1.58
295.574	-37.8
295.799	-76.21
296.025	-47.07
296.25	-53.39
296.476	278
296.701	26.97
296.926	-22.18
297.151	-115.15
297.377	1054.29
297.602	27.22
297.827	22.2
298.052	61.88
298.277	60.78
298.502	36.08
298.727	107.87
298.953	15.3
299.178	41.46
299.403	49.75
299.628	-15.61
299.852	-100.42
300.077	-2017.65
300.302	-3.44
300.527	-24.37
300.752	14.92
300.977	486
301.202	732.79
301.426	-55.91
301.651	-19.76
301.876	497.92
302.101	-38.25
302.325	7.18
302.55	110.83
302.775	-22.55
302.999	96.83
303.224	-30.21
303.448	18.74
303.673	-546.3
303.897	36.67
304.122	20.41
304.346	49.93
304.571	-33.22
304.795	-109.52
305.019	31.56
305.244	33.13
305.468	340.54
305.692	3.03
305.917	210.74
306.141	6.04
306.365	136.07
306.589	-7.38
306.813	-2.55
307.038	14.29
307.262	-27.39
307.486	45.24
307.71	2475
307.934	43.62
308.158	19.65
308.382	16.37
308.606	-84.12
308.83	40.67
309.054	-210.22
309.278	-17.36
309.502	22.58
309.725	132.37
309.949	1.61
310.173	35.63
310.397	9.98
310.62	287.31
310.844	59.21
311.068	-92.5
311.292	71.85
311.515	29.74
311.739	1310.42
311.962	16.9
312.186	40.75
312.41	39.73
312.633	45.76
312.857	74.44
313.08	-546.3
313.303	4.45
313.527	39.73
313.75	-78.88
313.974	-42.09
314.197	-119.13
314.42	139.95
314.644	-14.06
314.867	-4.95
315.09	-36.16
315.313	54.53
315.536	-30.14
315.76	-95.86
315.983	62.65
316.206	-8
316.429	-100.63
316.652	-204.44
316.875	36.7
317.098	-16.67
317.321	-19.85
317.544	-157.5
317.767	45.35
317.99	19.86
318.213	-0.65
318.436	-5.7
318.658	-33.92
318.881	-113.98
319.104	73.1
319.327	1.22
319.55	-7.17
319.772	87.61
319.995	-190
320.218	84.79
320.44	-192.06
320.663	-24.37
320.885	-54.06
321.108	-13.04
321.331	-34.05
321.553	-96.2
321.776	-3050
321.998	46.94
322.22	-35.08
322.443	27.65
322.665	-36.89
322.888	88.74
323.11	82.24
323.332	27.55
323.555	149.02
323.777	-1.46
323.999	-0.7
324.221	149.07
324.443	56.55
324.666	-7.93
324.888	57.16
325.11	-358.68
325.332	-218.09
325.554	-167.92
325.776	22.64
325.998	532.56
326.22	218.84
326.442	40.25
326.664	-8.84
326.886	-75.94
327.108	52.07
327.33	-25.33
327.551	33.14
327.773	55.89
327.995	-56.5
328.217	-6.01
328.439	-64.62
328.66	73.91
328.882	-390.91
329.104	-658.93
329.325	1.2
329.547	35.72
329.769	11.22
329.99	-10.16
330.212	477.05
330.433	-78.4
330.655	15.44
330.876	43.49
331.098	391.8
331.319	-8.83
331.54	-22.39
331.762	-56.9
331.983	40.76
332.204	-65.25
332.426	-6.47
332.647	338.76
332.868	1.25
333.089	20.69
333.311	7.18
333.532	-18.11
333.753	-1793.33
333.974	-6.47
334.195	-4.89
334.416	10.19
334.637	172.04
334.858	-17.88
335.079	208.55
335.3	-150.98
335.521	-2.51
335.742	313.04
335.963	-20.8
336.184	85.91
336.405	18.66
336.626	20.37
336.846	60.13
337.067	32.86
337.288	33.81
337.509	-1836.67
337.729	24.23
337.95	-41.86
338.171	36.68
338.391	-46.41
338.612	9.83
338.833	579.17
339.053	6.38
339.274	43.29
339.494	33.61
339.715	34.92
339.935	-137.34
340.156	40.25
340.376	40.2
340.596	1.85
340.817	942.86
341.037	142.41
341.257	40.25
341.478	16.76
341.698	94.02
341.918	-27.5
342.138	-10.88
342.359	74.19
342.579	-6.6
342.799	91.67
343.019	96.42
343.239	6.74
343.459	18.22
343.679	3.09
343.899	34.69
344.119	13.06
344.339	-79.75
344.559	12.22
344.779	-296.36
344.999	-41.93
345.219	49.33
345.439	2.1
345.658	8433.33
345.878	64.58
346.098	-32.24
346.318	31.93
346.537	1086.36
346.757	200
346.977	33.01
347.196	66.8
347.416	47.06
347.636	-30.91
347.855	-215.13
348.075	-31.44
348.294	-320
348.514	55.56
348.733	72.36
348.953	22.11
349.172	338.67
349.392	-90.03
349.611	78.47
349.83	-103.8
350.05	-49.14
350.269	-35.69
350.488	55.26
350.707	678.16
350.927	43.44
351.146	46.68
351.365	-2.7
351.584	62.12
351.803	54.15
352.023	3.15
352.242	58.13
352.461	-100.44
352.68	-90.04
352.899	47.06
353.118	6.38
353.337	-16.67
353.556	-43.27
353.775	42.01
353.993	-27.66
354.212	46.47
354.431	18.2
354.65	56.68
354.869	37.32
355.088	12.22
355.306	87.08
355.525	-44.67
355.744	-66.41
355.962	116.13
356.181	147.3
356.4	-130.7
356.618	-11.38
356.837	-17.77
357.055	9.97
357.274	134.69
357.492	-389.81
357.711	20.79
357.929	27.24
358.148	-424
358.366	173.39
358.585	185.39
358.803	-70.3
359.021	107.96
359.24	-19.88
359.458	-170.76
359.676	15.91
359.894	-8.37
360.113	17.13
360.331	-10.97
360.549	905.71
360.767	5.77
360.985	442.54
361.203	-95.23
361.421	49.96
361.639	35.43
361.857	100.41
362.075	-51.86
362.293	31.76
362.511	-13.92
362.729	-61.41
362.947	-87.48
363.165	-108.75
363.383	-12.14
363.601	36.42
363.819	5.33
364.036	-20.71
364.254	124.11
364.472	-52.45
364.689	-41.69
364.907	-28.86
365.125	183.75
365.342	27.17
365.56	1.06
365.778	-18.44
365.995	-76.25
366.213	-37.63
366.43	-28.24
366.648	57.81
366.865	85.29
367.083	70.69
367.3	-56.06
367.517	22.73
367.735	64.72
367.952	-23.57
368.17	33.83
368.387	-26.39
368.604	-16.46
368.821	-82.41
369.039	30.43
369.256	-9.21
369.473	-0.54
369.69	-77.49
369.907	-9225
370.124	3627.27
370.341	85.29
370.558	65.98
370.776	17.76
370.993	77.62
371.21	46.2
371.426	-85.65
371.643	-74.48
371.86	4.62
372.077	-15.17
372.294	17.6
372.511	-11.63
372.728	26.54
372.945	3.09
373.161	46.44
373.378	-54.68
373.595	-14.43
373.811	26.82
374.028	-54.19
374.245	13.06
374.461	27.22
374.678	5.44
374.895	16.47
375.111	26.48
375.328	38.33
375.544	1008.11
375.761	16.77
375.977	-4.06
376.194	25.89
376.41	85.96
376.626	13.29
376.843	6.38
377.059	51.57
377.275	-22.8
377.492	64.56
377.708	-29.04
377.924	6.6
378.14	-8.38
378.357	109.3
378.573	-100.32
378.789	33.54
379.005	-4.38
379.221	-10.36
379.437	-35.69
379.653	11.14
379.869	34.72
380.085	-26.29
380.301	27.56
380.517	52.35
380.733	36.23
380.949	-9.23
381.165	-13.26
381.381	38.52
381.597	20.14
381.813	9.59
382.028	-4.65
382.244	20.85
382.46	11.87
382.676	46.08
382.891	-3.95
383.107	-12.65
383.323	12.61
383.538	-92.91
383.754	-21.19
383.969	-23.85
384.185	85.21
384.4	32.83
384.616	-29.82
384.831	38.88
385.047	-71.72
385.262	8.96
385.478	-17.75
385.693	35.72
385.909	41.49
386.124	14.97
386.339	30.1
386.554	-40.89
386.77	17.94
386.985	-1.33
387.2	20.76
387.415	-7.01
387.631	29.28
387.846	19.96
388.061	30.75
388.276	-12.21
388.491	17.92
388.706	24.03
388.921	10.95
389.136	4.91
389.351	68.22
389.566	-31.39
389.781	17
389.996	42.79
390.211	20.12
390.426	23.45
390.641	-7.67
390.855	-21.88
391.07	18.86
391.285	41.11
391.5	20.41
391.714	12.55
391.929	50.61
392.144	36.24
392.358	-2.46
392.573	-16.38
392.788	6.66
393.002	-2.12
393.217	6.56
393.431	13.67
393.646	13.16
393.86	-4.52
394.075	24.06
394.289	0.87
394.504	1.92
394.718	15.47
394.933	2.59
395.147	26.24
395.361	17.79
395.576	12.25
395.79	-27.44
396.004	1.54
396.218	2.03
396.432	18.54
396.647	42.7
396.861	25.98
397.075	20.92
397.289	6.48
397.503	9.71
397.717	10.37
397.931	11.25
398.145	2.24
398.359	10.77
398.573	11.56
398.787	25.4
399.001	21.95
399.215	29.81
399.429	14.23
399.643	8.66
399.857	13.37
400.07	16.46
400.284	15.86
400.498	19.98
400.712	13.05
400.925	5.52
401.139	14.9
401.353	13.76
401.566	15.91
401.78	18.81
401.994	2.83
402.207	15.19
402.421	0.94
402.634	10.17
402.848	21.37
403.061	15.08
403.275	13.41
403.488	14.2
403.702	15.48
403.915	18.86
404.128	11.53
404.342	11.51
404.555	11.86
404.768	19.95
404.982	18.12
405.195	13.87
405.408	18.18
405.621	16.77
405.835	20.72
406.048	11.58
406.261	17.24
406.474	22.08
406.687	15.58
406.9	15.2
407.113	10.97
407.326	14.08
407.539	11.59
407.752	14.33
407.965	16.03
408.178	19.51
408.391	16.96
408.604	18.8
408.817	8.91
409.029	17.7
409.242	12.46
409.455	13.13
409.668	16.67
409.881	14.3
410.093	20.14
410.306	15.47
410.519	12.92
410.731	16.12
410.944	13.83
411.157	11.55
411.369	14.52
411.582	14.64
411.794	17.61
412.007	15.47
412.219	17.56
412.432	16.62
412.644	14.59
412.857	10.09
413.069	14.18
413.281	15.97
413.494	20.66
413.706	18
413.918	13.62
414.131	14.02
414.343	14.03
414.555	14.81
414.767	16.15
414.979	14.76
415.192	14.75
415.404	13.71
415.616	15.6
415.828	15.96
416.04	14.83
416.252	12.32
416.464	10.59
416.676	16.28
416.888	13.27
417.1	13.41
417.312	14
417.524	12.68
417.736	13.15
417.948	11.51
418.159	10.75
418.371	14.03
418.583	11.82
418.795	11.05
419.007	10.96
419.218	11.41
419.43	10.06
419.642	10.83
419.853	10.09
420.065	10.1
420.276	14.58
420.488	11.75
420.7	11.6
420.911	12.24
421.123	9.94
421.334	10.05
421.546	10.33
421.757	9.1
421.969	10.14
422.18	8.99
422.391	11.01
422.603	10.54
422.814	12.36
423.025	9.69
423.237	11.36
423.448	10.02
423.659	11.45
423.87	6.08
424.082	11.48
424.293	8.58
424.504	12.23
424.715	10.27
424.926	9.03
425.137	6.5
425.348	8.33
425.559	8.71
425.77	8.33
425.981	7.68
426.192	9.71
426.403	6.9
426.614	5.32
426.825	10.97
427.036	9.23
427.247	6.5
427.458	7.32
427.668	4.76
427.879	9.31
428.09	7.53
428.301	7.35
428.511	5.73
428.722	3.85
428.933	6.73
429.143	7.21
429.354	6.63
429.565	7.72
429.775	5.9
429.986	6.83
430.196	6.33
430.407	3.85
430.617	3.92
430.828	3.48
431.038	7.23
431.249	4.24
431.459	6.36
431.669	7.3
431.88	7.3
432.09	6.63
432.3	6.03
432.511	2.88
432.721	5.57
432.931	3.39
433.141	2.54
433.351	3.05
433.562	3.38
433.772	4.95
433.982	6.17
434.192	6.61
434.402	6.71
434.612	4.08
434.822	4.77
435.032	4.22
435.242	6.03
435.452	1.85
435.662	2.48
435.872	3.31
436.082	4.53
436.292	6.83
436.502	5.59
436.711	3.16
436.921	5.91
437.131	6.39
437.341	3.18
437.551	6.98
437.76	5.39
437.97	3.67
438.18	4.16
438.389	3.74
438.599	2.67
438.808	3.33
439.018	3.57
439.228	5.18
439.437	1.99
439.647	4.6
439.856	3.33
440.066	4.69
440.275	5.25
440.484	4.89
440.694	2.82
440.903	4.71
441.113	4.63
441.322	4.69
441.531	3.04
441.741	6.12
441.95	6.92
442.159	3.22
442.368	4.48
442.577	3.13
442.787	4.38
442.996	3.83
443.205	-0.92
443.414	2.95
443.623	5.29
443.832	4.24
444.041	5.29
444.25	4.65
444.459	5.26
444.668	3.57
444.877	4.08
445.086	3.93
445.295	4.81
445.504	5.96
445.713	4.35
445.922	3.62
446.13	3.17
446.339	2.79
446.548	2.65
446.757	3.94
446.965	1.11
447.174	1.66
447.383	5.4
447.591	0.17
447.8	2.71
448.009	1.9
448.217	4.69
448.426	3.73
448.634	3.59
448.843	2.36
449.051	3.04
449.26	4.39
449.468	3.68
449.677	3.51
449.885	5.25
450.093	2.86
450.302	1.01
450.51	3.24
450.719	1.62
450.927	2.82
451.135	3.16
451.343	1.59
451.552	5.3
451.76	3.13
451.968	5.12
452.176	1.58
452.384	3.31
452.592	4.38
452.8	3.62
453.009	2.22
453.217	5.5
453.425	1.98
453.633	1.37
453.841	2.5
454.049	4.21
454.257	2.64
454.464	4.69
454.672	3.03
454.88	1.54
455.088	-0.03
455.296	0.26
455.504	2.53
455.711	1.33
455.919	4.59
456.127	3.26
456.335	3.54
456.542	4.78
456.75	0.89
456.958	0.8
457.165	4.62
457.373	3.35
457.581	1.43
457.788	1.36
457.996	0.11
458.203	4.4
458.411	5.28
458.618	1.34
458.826	0.32
459.033	4.35
459.24	3.83
459.448	3.62
459.655	3.87
459.863	2.46
460.07	2.89
460.277	2.08
460.484	4.56
460.692	4.39
460.899	-2.11
461.106	1.73
461.313	5.27
461.52	-0.41
461.728	4.01
461.935	4.21
462.142	3.66
462.349	4.58
462.556	2.65
462.763	3.49
462.97	3.43
463.177	2.06
463.384	1.42
463.591	2.87
463.798	5.96
464.005	0.51
464.212	3.97
464.418	4.21
464.625	2.47
464.832	1.13
465.039	-0.15
465.246	1.72
465.452	2.19
465.659	2.92
465.866	2.09
466.072	1.43
466.279	3.13
466.486	4.93
466.692	4.39
466.899	3.53
467.105	-0.08
467.312	1.78
467.519	3.16
467.725	1.17
467.931	2.38
468.138	2.29
468.344	2.42
468.551	-0.85
468.757	0.71
468.964	4.09
469.17	3.26
469.376	3.77
469.583	1.78
469.789	3.07
469.995	0.24
470.201	4.41
470.408	2.23
470.614	2.34
470.82	1.35
471.026	1.16
471.232	2.5
471.438	3.16
471.644	2.49
471.85	3.17
472.056	4.08
472.262	3.61
472.468	2.24
472.674	1.92
472.88	2.65
473.086	1.72
473.292	2.68
473.498	3.14
473.704	2.06
473.91	4.17
474.116	2.13
474.321	2.37
474.527	1.69
474.733	3.62
474.939	0.55
475.144	4.18
475.35	0.29
475.556	0.54
475.761	0.52
475.967	2.68
476.173	2.41
476.378	3.74
476.584	1.9
476.789	2.46
476.995	3.93
477.2	3.16
477.406	3.59
477.611	0.93
477.817	4.06
478.022	0.88
478.227	1.58
478.433	2.5
478.638	2.56
478.843	3.46
479.049	2.34
479.254	1.87
479.459	0.84
479.664	0.65
479.87	4.41
480.075	2.6
480.28	2.14
480.485	3.48
480.69	2.68
480.895	4.27
481.1	2.34
481.306	2.88
481.511	2.63
481.716	3.16
481.921	1.42
482.126	2.81
482.33	3.08
482.535	2.71
482.74	2.21
482.945	4.17
483.15	2.85
483.355	2.71
483.56	2.66
483.765	1.86
483.969	1.64
484.174	3.08
484.379	2.08
484.583	2.96
484.788	1.62
484.993	3.27
485.197	4.13
485.402	2.59
485.607	3.61
485.811	2.96
486.016	2.52
486.22	4.75
486.425	3.79
486.629	4.18
486.834	3.75
487.038	2.28
487.243	1.71
487.447	2.7
487.652	4.46
487.856	3.01
488.06	3.36
488.265	2.98
488.469	3.23
488.673	3.16
488.877	3.7
489.082	3.65
489.286	3.29
489.49	2.47
489.694	3.47
489.898	5.03
490.102	3
490.307	3.44
490.511	2.66
490.715	2.73
490.919	3.07
491.123	3.89
491.327	4.42
491.531	3.19
491.735	4.48
491.939	3.47
492.143	3.57
492.346	4.19
492.55	3.87
492.754	2.37
492.958	4.16
493.162	3.34
493.366	3.2
493.569	5.04
493.773	4.69
493.977	4.02
494.18	4.57
494.384	4.2
494.588	5.12
494.791	3.55
494.995	4.59
495.199	5.4
495.402	4.93
495.606	4.12
495.809	4.36
496.013	4.54
496.216	5.49
496.42	4.76
496.623	4.04
496.827	5.25
497.03	5.48
497.233	5.24
497.437	4.59
497.64	4.86
497.843	5.14
498.047	5.28
498.25	6.63
498.453	5.66
498.656	5.81
498.86	6.54
499.063	6.48
499.266	5.83
499.469	5.74
499.672	6.21
499.875	6.28
500.078	6.68
500.281	6.66
500.484	6.91
500.687	5.94
500.89	6.95
501.093	7.71
501.296	8.49
501.499	6.16
501.702	7.97
501.905	7.9
502.108	7.91
502.311	7.6
502.514	7.57
502.716	8.31
502.919	8.89
503.122	7.73
503.325	8.36
503.527	7.96
503.73	8.92
503.933	9.12
504.135	8.73
504.338	9.06
504.541	9.11
504.743	10.13
504.946	10
505.148	8.36
505.351	9.06
505.553	9.74
505.756	9.95
505.958	10.25
506.161	10.46
506.363	9.5
506.565	10.73
506.768	10.8
506.97	10
507.172	9.86
507.375	10.4
507.577	10.54
507.779	12.32
507.982	11.55
508.184	11.46
508.386	11.95
508.588	11.51
508.79	12.11
508.993	12.26
509.195	13.04
509.397	13.26
509.599	13.81
509.801	11.58
510.003	14.14
510.205	13.77
510.407	14.2
510.609	14.21
510.811	14.28
511.013	14.11
511.215	14.25
511.417	13.91
511.618	14.6
511.82	15.12
512.022	14.76
512.224	14.55
512.426	14.91
512.627	14.1
512.829	14.09
513.031	15.24
513.233	15.88
513.434	15.44
513.636	14.26
513.838	15.67
514.039	15.49
514.241	15
514.442	15.21
514.644	15.23
514.845	16.06
515.047	16.39
515.248	16.18
515.45	16
515.651	15.95
515.853	15.8
516.054	15.94
516.256	14.86
516.457	16.62
516.658	15.17
516.86	15.61
517.061	15.66
517.262	15.98
517.463	15.98
517.665	15.94
517.866	15.24
518.067	15.62
518.268	15.37
518.469	15.3
518.67	15.93
518.872	14.36
519.073	14.63
519.274	14.82
519.475	14.9
519.676	14.09
519.877	14.45
520.078	14.37
520.279	14.03
520.48	13.26
520.681	13.98
520.881	14.06
521.082	14.37
521.283	13.23
521.484	12.9
521.685	13.65
521.886	13.79
522.086	13.72
522.287	12.96
522.488	13.9
522.689	13.09
522.889	12.79
523.09	12.47
523.291	12.41
523.491	12.02
523.692	11.55
523.892	12.09
524.093	11.61
524.294	11.54
524.494	10.93
524.695	10.83
524.895	10.95
525.096	11.03
525.296	10.11
525.496	10.57
525.697	10.11
525.897	10.37
526.098	10.11
526.298	10.03
526.498	10.26
526.699	9.42
526.899	9.87
527.099	9.16
527.299	9.13
527.499	8.95
527.7	9.17
527.9	8.8
528.1	9.04
528.3	9.06
528.5	8.52
528.7	8.33
528.9	8.04
529.1	8.44
529.3	8.19
529.5	7.79
529.7	7.52
529.9	7.66
530.1	7.93
530.3	7.42
530.5	7.81
530.7	8.2
530.9	7.74
531.1	7.58
531.3	6.95
531.499	7.22
531.699	6.54
531.899	6.53
532.099	6.66
532.298	6.76
532.498	6.69
532.698	6.5
532.897	6.65
533.097	6.53
533.297	6.08
533.496	6.33
533.696	6.56
533.895	5.56
534.095	5.87
534.294	6.08
534.494	5.64
534.693	5.27
534.893	5.48
535.092	5.19
535.292	5.36
535.491	5.41
535.69	4.9
535.89	4.94
536.089	5.09
536.288	4.97
536.488	4.96
536.687	5.14
536.886	4.6
537.085	4.72
537.285	4.69
537.484	4.72
537.683	4.33
537.882	4.64
538.081	4.38
538.28	4.23
538.479	4.84
538.678	3.95
538.877	4.54
539.076	4.38
539.275	4.4
539.474	4.45
539.673	3.84
539.872	4.03
540.071	4.49
540.27	4.72
540.469	4.03
540.668	4.69
540.867	4.02
541.065	4.17
541.264	3.97
541.463	3.85
541.662	3.78
541.861	4.24
542.059	3.93
542.258	3.94
542.457	4.01
542.655	3.17
542.854	3.66
543.052	3.79
543.251	3.39
543.45	3.54
543.648	3.3
543.847	3.92
544.045	2.78
544.244	3.21
544.442	3.4
544.641	2.86
544.839	3.2
545.037	3.38
545.236	3.01
545.434	2.79
545.632	3.5
545.831	3.3
546.029	3.4
546.227	3.19
546.426	2.9
546.624	3.03
546.822	2.98
547.02	2.98
547.218	2.94
547.417	2.86
547.615	2.96
547.813	3.29
548.011	3.31
548.209	3.2
548.407	3.12
548.605	3.08
548.803	2.59
549.001	2.77
549.199	2.66
549.397	3.28
549.595	2.81
549.793	2.88
549.991	2.94
550.189	2.91
550.387	2.88
550.584	2.82
550.782	2.63
550.98	2.65
551.178	3.04
551.376	2.58
551.573	2.49
551.771	3.06
551.969	2.86
552.166	2.45
552.364	2.6
552.562	2.35
552.759	2.65
552.957	2.45
553.154	2.64
553.352	2.43
553.55	2.4
553.747	2.39
553.945	2.46
554.142	2.55
554.339	2.79
554.537	2.38
554.734	2.32
554.932	2.22
555.129	2.39
555.326	2.4
555.524	2.54
555.721	2.52
555.918	2.56
556.116	1.72
556.313	2.57
556.51	2.53
556.707	2.43
556.904	2.15
557.102	2.36
557.299	2.41
557.496	2.08
557.693	2.4
557.89	2.18
558.087	2.5
558.284	2.29
558.481	2.21
558.678	2.19
558.875	2.34
559.072	2.4
559.269	2.27
559.466	2.06
559.663	2.18
559.86	2.18
560.057	2.3
560.254	1.96
560.45	2.12
560.647	1.97
560.844	2.24
561.041	2.24
561.237	2.08
561.434	2.14
561.631	2.25
561.828	1.83
562.024	1.85
562.221	1.97
562.418	2.17
562.614	2.02
562.811	2.22
563.007	2.15
563.204	2.08
563.4	2.16
563.597	1.91
563.793	2.06
563.99	2.05
564.186	1.74
564.383	2.16
564.579	2.23
564.775	1.81
564.972	2.22
565.168	1.88
565.365	2.07
565.561	2.13
565.757	2.01
565.953	2.02
566.15	2
566.346	1.95
566.542	2.11
566.738	2.06
566.934	2.17
567.131	2.01
567.327	2.12
567.523	1.78
567.719	1.87
567.915	1.91
568.111	1.95
568.307	2.23
568.503	1.87
568.699	1.86
568.895	1.98
569.091	1.83
569.287	2.02
569.483	1.91
569.679	2.08
569.875	1.91
570.07	1.82
570.266	2.18
570.462	1.77
570.658	2.01
570.854	1.64
571.049	1.84
571.245	2.05
571.441	1.88
571.636	1.73
571.832	1.81
572.028	2.04
572.223	1.85
572.419	2.01
572.615	1.75
572.81	2.12
573.006	1.71
573.201	1.86
573.397	1.74
573.592	1.92
573.788	1.79
573.983	1.67
574.179	1.86
574.374	1.7
574.569	2.2
574.765	2.1
574.96	1.59
575.156	1.87
575.351	1.77
575.546	1.95
575.741	1.83
575.937	2.05
576.132	2.01
576.327	1.95
576.522	1.95
576.718	1.66
576.913	2.09
577.108	1.74
577.303	2.01
577.498	1.73
577.693	1.92
577.888	1.94
578.083	1.86
578.278	1.91
578.473	1.75
578.668	2
578.863	1.9
579.058	1.54
579.253	1.91
579.448	1.64
579.643	1.97
579.838	1.82
580.033	1.83
580.227	1.97
580.422	1.93
580.617	1.91
580.812	1.87
581.006	1.61
581.201	1.98
581.396	1.7
581.591	1.96
581.785	1.94
581.98	2.03
582.175	2.03
582.369	2.01
582.564	1.84
582.758	2.03
582.953	1.94
583.147	2.05
583.342	2.15
583.536	1.88
583.731	1.99
583.925	2.08
584.12	1.99
584.314	1.81
584.509	1.8
584.703	1.94
584.897	1.84
585.092	1.98
585.286	1.9
585.48	1.58
585.674	1.76
585.869	2.1
586.063	1.96
586.257	1.83
586.451	1.93
586.646	1.96
586.84	1.8
587.034	2.05
587.228	1.79
587.422	1.82
587.616	1.58
587.81	1.8
588.004	1.87
588.198	1.75
588.392	1.81
588.586	2.09
588.78	2.15
588.974	1.68
589.168	1.77
589.362	1.96
589.556	2.1
589.75	1.81
589.944	1.89
590.137	1.85
590.331	2.05
590.525	2.29
590.719	2.03
590.913	2
591.106	2.19
591.3	1.91
591.494	2.27
591.687	1.98
591.881	1.87
592.075	1.97
592.268	1.74
592.462	1.96
592.655	1.95
592.849	1.81
593.043	2.23
593.236	1.96
593.43	1.99
593.623	1.72
593.817	1.87
594.01	1.78
594.203	2.05
594.397	2.06
594.59	2.09
594.784	1.86
594.977	1.9
595.17	2.12
595.364	1.78
595.557	1.94
595.75	2
595.943	1.93
596.137	2.06
596.33	1.86
596.523	2.2
596.716	2.19
596.909	2.23
597.102	2.38
597.296	2.19
597.489	2.06
597.682	1.94
597.875	2.03
598.068	2.22
598.261	2.06
598.454	2.08
598.647	1.95
598.84	2.11
599.033	1.95
599.226	2.1
599.419	2.1
599.611	2.4
599.804	2
599.997	2.17
600.19	1.98
600.383	2.07
600.576	2.1
600.768	2.18
600.961	2.04
601.154	1.98
601.347	2.03
601.539	2.05
601.732	2.14
601.925	2.24
602.117	2.33
602.31	2.13
602.502	2.27
602.695	2.24
602.888	2.13
603.08	1.98
603.273	2.31
603.465	2.05
603.658	2.17
603.85	2.15
604.043	2.19
604.235	2.23
604.427	2.07
604.62	2.1
604.812	2.09
605.004	2.29
605.197	2.32
605.389	2.05
605.581	2.15
605.774	2.05
605.966	2.1
606.158	2.12
606.35	2.31
606.543	2.29
606.735	2.42
606.927	1.92
607.119	2.45
607.311	2.61
607.503	2.46
607.695	2.38
607.887	2.38
608.079	2.47
608.271	2.44
608.463	2.1
608.655	2.49
608.847	2.42
609.039	2.29
609.231	2.37
609.423	2.3
609.615	2.58
609.807	2.24
609.999	2.56
610.191	2.28
610.382	2.49
610.574	2.27
610.766	2.56
610.958	2.4
611.15	2.38
611.341	2.7
611.533	2.61
611.725	2.58
611.916	2.87
612.108	2.56
612.3	2.43
612.491	2.48
612.683	2.26
612.874	2.37
613.066	2.75
613.257	2.68
613.449	2.57
613.64	2.31
613.832	2.62
614.023	2.71
614.215	2.48
614.406	2.69
614.598	2.36
614.789	2.93
614.98	2.8
615.172	2.66
615.363	2.62
615.554	2.55
615.746	2.59
615.937	2.77
616.128	2.72
616.319	2.86
616.511	2.4
616.702	2.61
616.893	2.89
617.084	2.61
617.275	2.66
617.466	2.71
617.658	2.8
617.849	2.8
618.04	2.47
618.231	2.78
618.422	2.75
618.613	2.84
618.804	2.76
618.995	2.83
619.186	2.75
619.377	2.58
619.568	2.9
619.758	2.79
619.949	3.07
620.14	2.91
620.331	2.62
620.522	2.91
620.713	2.79
620.903	3.07
621.094	2.93
621.285	2.99
621.476	3.01
621.666	2.84
621.857	2.89
622.048	3.12
622.238	3.1
622.429	3.46
622.62	3.42
622.81	3.37
623.001	3.48
623.191	3.18
623.382	3.12
623.572	3.1
623.763	3.32
623.953	3.18
624.144	2.89
624.334	2.91
624.525	3.23
624.715	3.27
624.905	3.59
625.096	3.41
625.286	3.2
625.477	3.36
625.667	3.55
625.857	3.1
626.047	3.41
626.238	3.64
626.428	3.36
626.618	3.3
626.808	3.35
626.999	3.49
627.189	3.23
627.379	3.16
627.569	3.48
627.759	3.52
627.949	3.61
628.139	3.31
628.329	3.46
628.519	3.81
628.709	3.51
628.899	3.71
629.089	3.5
629.279	3.62
629.469	3.52
629.659	3.31
629.849	3.37
630.039	3.56
630.229	3.83
630.419	3.63
630.609	3.66
630.798	3.57
630.988	3.79
631.178	3.83
631.368	3.8
631.557	3.85
631.747	3.76
631.937	3.64
632.127	3.77
632.316	3.84
632.506	4.12
632.696	4.16
632.885	4.03
633.075	4.02
633.264	3.97
633.454	4.11
633.643	3.86
633.833	4.1
634.022	3.99
634.212	4.16
634.401	4.16
634.591	4.03
634.78	4.07
634.97	4.35
635.159	4.2
635.348	3.84
635.538	4.18
635.727	4.15
635.916	4.43
636.106	4.23
636.295	4.56
636.484	4.39
636.674	4.31
636.863	4.28
637.052	4.41
637.241	4.2
637.43	4.41
637.619	4.49
637.809	4.46
637.998	4.58
638.187	4.48
638.376	4.69
638.565	4.47
638.754	4.43
638.943	4.45
639.132	4.65
639.321	4.59
639.51	4.36
639.699	4.64
639.888	4.6
640.077	4.53
640.266	4.59
640.455	5.09
640.643	4.84
640.832	4.81
641.021	4.58
641.21	4.83
641.399	4.82
641.587	4.93
641.776	5.05
641.965	4.94
642.154	5.41
642.342	4.84
642.531	5.24
642.72	4.92
642.908	5.08
643.097	5.08
643.286	5.34
643.474	5.37
643.663	5.4
643.851	5.45
644.04	5.04
644.228	5.15
644.417	5.38
644.605	5.32
644.794	5
644.982	5.3
645.171	5.28
645.359	5.18
645.547	5.6
645.736	5.68
645.924	5.25
646.112	5.37
646.301	5.46
646.489	5.43
646.677	5.27
646.866	5.59
647.054	5.61
647.242	5.59
647.43	5.61
647.618	6.13
647.807	5.83
647.995	5.84
648.183	5.93
648.371	5.75
648.559	5.53
648.747	5.9
648.935	5.75
649.123	6.15
649.311	5.94
649.499	6.01
649.687	6.36
649.875	5.96
650.063	6.26
650.251	6.05
650.439	6.35
650.627	6.12
650.815	6.24
651.003	6.23
651.191	6.38
651.378	6.41
651.566	6.29
651.754	6.17
651.942	6.65
652.13	6.56
652.317	7.01
652.505	6.86
652.693	6.76
652.88	6.79
653.068	6.71
653.256	6.85
653.443	6.94
653.631	6.96
653.819	7.1
654.006	6.92
654.194	7.07
654.381	7.01
654.569	6.77
654.756	7.09
654.944	7.2
655.131	7.17
655.319	7.24
655.506	7.09
655.693	7.1
655.881	7.32
656.068	7.47
656.256	7.63
656.443	7.51
656.63	7.45
656.818	7.55
657.005	7.51
657.192	7.65
657.379	7.91
657.567	7.68
657.754	7.79
657.941	7.74
658.128	7.58
658.315	7.8
658.502	7.4
658.69	7.7
658.877	8.09
659.064	7.97
659.251	8.46
659.438	8.18
659.625	8.28
659.812	8.34
659.999	8.18
660.186	8.42
660.373	8.31
660.56	8.22
660.747	8.38
660.934	8.37
661.121	8.49
661.308	8.34
661.494	8.95
661.681	8.55
661.868	9.14
662.055	8.49
662.242	8.66
662.428	8.89
662.615	9.04
662.802	9.31
662.989	9.36
663.175	9.59
663.362	9.87
663.549	9.78
663.735	9.67
663.922	9.76
664.109	9.78
664.295	9.81
664.482	10.02
664.668	9.73
664.855	9.64
665.041	9.68
665.228	9.58
665.414	9.72
665.601	9.73
665.787	10.17
665.974	9.94
666.16	10.04
666.347	9.72
666.533	10.2
666.719	10.03
666.906	10.11
667.092	10.3
667.278	10.05
667.465	9.96
667.651	10.18
667.837	9.94
668.023	10.48
668.21	10.45
668.396	10.23
668.582	10.52
668.768	10.21
668.954	10.52
669.14	10.64
669.327	10.81
669.513	11.22
669.699	11.1
669.885	11.15
670.071	10.96
670.257	11.34
670.443	11.51
670.629	10.87
670.815	10.99
671.001	11.39
671.187	11.24
671.373	11.35
671.559	11.54
671.744	11.52
671.93	11.69
672.116	12.3
672.302	11.89
672.488	11.98
672.674	12.12
672.859	12.34
673.045	12.11
673.231	11.79
673.417	12.02
673.602	12.04
673.788	12.36
673.974	12.16
674.159	12.11
674.345	12.31
674.531	12.1
674.716	12.01
674.902	12.35
675.087	12.52
675.273	12.77
675.459	12.97
675.644	12.68
675.83	12.55
676.015	12.57
676.2	12.63
676.386	12.92
676.571	12.84
676.757	12.79
676.942	12.75
677.128	13
677.313	12.74
677.498	13.14
677.684	12.7
677.869	12.98
678.054	13.1
678.24	13.31
678.425	13.64
678.61	13.59
678.795	13.9
678.98	13.64
679.166	13.63
679.351	13.67
679.536	13.92
679.721	13.76
679.906	13.77
680.091	13.56
680.276	13.79
680.461	14.02
680.647	13.97
680.832	14.36
681.017	13.69
681.202	13.86
681.387	14.4
681.572	14.53
681.756	14.47
681.941	14.14
682.126	14.26
682.311	14.32
682.496	14.16
682.681	14.86
682.866	14.38
683.051	14.37
683.235	14.58
683.42	14.85
683.605	14.9
683.79	15.07
683.974	14.58
684.159	14.54
684.344	14.58
684.529	15.05
684.713	15.03
684.898	14.78
685.083	15.14
685.267	15.4
685.452	15.05
685.636	15.01
685.821	15.56
686.005	15.21
686.19	15.45
686.375	15.75
686.559	15.17
686.744	15.33
686.928	15.41
687.112	15.01
687.297	14.6
687.481	14.87
687.666	15.16
687.85	15.02
688.034	15.13
688.219	15.34
688.403	15.07
688.587	15.3
688.772	15.53
688.956	15.36
689.14	15.59
689.324	15.99
689.509	15.82
689.693	15.51
689.877	15.39
690.061	15.56
690.245	15.44
690.43	15.42
690.614	15.52
690.798	15.19
690.982	15.54
691.166	15.96
691.35	15.94
691.534	16.03
691.718	15.71
691.902	15.83
692.086	15.53
692.27	15.49
692.454	15.26
692.638	15.82
692.822	16.57
693.006	16.19
693.19	16.57
693.373	16.6
693.557	16.53
693.741	16.55
693.925	16.58
694.109	16.24
694.293	16.59
694.476	16.17
694.66	16.46
694.844	16.21
695.027	16.32
695.211	16.21
695.395	16.84
695.578	16.36
695.762	16.48
695.946	16.49
696.129	16.21
696.313	16.46
696.497	16.5
696.68	16.34
696.864	16.47
697.047	16.72
697.231	16.67
697.414	16.61
697.598	16.05
697.781	15.8
697.965	15.65
698.148	16.08
698.331	15.96
698.515	16.13
698.698	16.24
698.881	16.25
699.065	15.95
699.248	16.27
699.431	16.69
699.615	16.57
699.798	16.48
699.981	16.44
700.165	16.57
700.348	16.13
700.531	16.72
700.714	16.23
700.897	15.96
701.08	16.33
701.264	16.13
701.447	16.44
701.63	15.94
701.813	16.36
701.996	16.28
702.179	16.26
702.362	16.41
702.545	16.79
702.728	16.44
702.911	16.98
703.094	17.12
703.277	17.11
703.46	17.35
703.643	17.27
703.826	17.01
704.009	17.05
704.191	16.51
704.374	17.19
704.557	16.33
704.74	16.94
704.923	16.59
705.106	16.41
705.288	16.13
705.471	16.02
705.654	15.94
705.837	15.98
706.019	15.82
706.202	16.32
706.385	16.76
706.567	16.01
706.75	15.87
706.932	16.39
707.115	16.01
707.298	15.28
707.48	16.16
707.663	15.3
707.845	16.4
708.028	16.77
708.21	16.63
708.393	16.48
708.575	16.28
708.758	16.42
708.94	16.77
709.123	16.61
709.305	16.53
709.487	16.59
709.67	16.74
709.852	16.64
710.034	16.57
710.217	16.25
710.399	16.4
710.581	16.24
710.764	16.22
710.946	15.83
711.128	16.25
711.31	16.09
711.492	15.83
711.675	15.58
711.857	16.61
712.039	16.25
712.221	15.69
712.403	15.98
712.585	15.92
712.767	16.14
712.949	16.18
713.131	16.28
713.314	16.42
713.496	15.96
713.678	16.02
713.86	16.33
714.041	16.18
714.223	16.09
714.405	15.67
714.587	15.88
714.769	15.5
714.951	15.53
715.133	15.78
715.315	16.09
715.497	16.45
715.678	16.05
715.86	16.18
716.042	16.03
716.224	15.81
716.406	15.92
716.587	16.49
716.769	15.88
716.951	15.63
717.132	15.59
717.314	15.68
717.496	15.66
717.677	15.93
717.859	15.78
718.041	15.68
718.222	15.39
718.404	15.53
718.585	15.56
718.767	15.73
718.948	16.02
719.13	16.1
719.311	15.92
719.493	15.9
719.674	15.98
719.856	15.27
720.037	15.79
720.219	15.02
720.4	15.63
720.581	15.71
720.763	15.93
720.944	15.91
721.125	15.72
721.307	15.67
721.488	15.3
721.669	15.58
721.85	16.05
722.032	15.37
722.213	15.46
722.394	15.76
722.575	15.45
722.756	14.98
722.938	14.97
723.119	15.56
723.3	15.42
723.481	15.51
723.662	15.53
723.843	15.14
724.024	14.96
724.205	15.34
724.386	15.49
724.567	15.16
724.748	16.12
724.929	15.78
725.11	15.79
725.291	16.07
725.472	15.82
725.653	16.21
725.834	15.67
726.015	15.61
726.196	15.3
726.377	15.15
726.557	14.99
726.738	15.72
726.919	15.32
727.1	14.52
727.281	15.68
727.461	15.33
727.642	15.2
727.823	15.27
728.004	15.67
728.184	15.87
728.365	15.82
728.546	15.57
728.726	15.32
728.907	15.22
729.087	15.17
729.268	14.61
729.449	14.65
729.629	14.99
729.81	15.45
729.99	14.34
730.171	14.57
730.351	14.67
730.532	14.76
730.712	14.62
730.893	14.32
731.073	14.4
731.253	14.58
731.434	14.78
731.614	14.34
731.795	13.98
731.975	14.05
732.155	14.32
732.336	14.95
732.516	14.46
732.696	14.8
732.876	14.42
733.057	13.93
733.237	13.89
733.417	14.08
733.597	13.87
733.778	14.71
733.958	14.3
734.138	13.93
734.318	13.95
734.498	14.54
734.678	13.88
734.858	14.33
735.038	14.7
735.218	14.66
735.398	14.54
735.579	14.71
735.759	14.3
735.939	14.67
736.119	14.66
736.298	15.06
736.478	14.83
736.658	14.85
736.838	14.72
737.018	14.92
737.198	15
737.378	14.88
737.558	14.61
737.738	14.71
737.917	14.9
738.097	14.52
738.277	14.7
738.457	14.12
738.637	13.88
738.816	13.68
738.996	13.84
739.176	14.25
739.355	14.47
739.535	14.38
739.715	14.43
739.894	13.92
740.074	13.88
740.254	14.09
740.433	13.7
740.613	13.47
740.792	13.66
740.972	14.08
741.151	13.32
741.331	13.5
741.51	14.16
741.69	14.33
741.869	14.81
742.049	14.35
742.228	14.84
742.408	14.1
742.587	15.15
742.766	14.51
742.946	14.43
743.125	14.47
743.305	14.58
743.484	14.08
743.663	14.38
743.842	14.21
744.022	14.33
744.201	14.43
744.38	13.58
744.56	13.99
744.739	14.28
744.918	14.65
745.097	14.03
745.276	13.82
745.455	14.3
745.635	14.2
745.814	14.48
745.993	13.76
746.172	13.56
746.351	14.21
746.53	14.47
746.709	13.61
746.888	13.9
747.067	13.22
747.246	14.59
747.425	14.14
747.604	14.03
747.783	14.02
747.962	14.02
748.141	14.73
748.32	13.96
748.499	14.31
748.677	14.25
748.856	14.05
749.035	14.05
749.214	14.34
749.393	14.56
749.572	13.49
749.75	14.11
749.929	14.19
750.108	13.94
750.287	14.36
750.465	14.66
750.644	14.39
750.823	14.35
751.001	13.72
751.18	14.25
751.359	13.93
751.537	13.87
751.716	13.66
751.894	13.33
752.073	12.72
752.251	12.97
752.43	13.83
752.609	14.32
752.787	13.76
752.966	13.84
753.144	13.72
753.322	13.46
753.501	13.42
753.679	13.65
753.858	14.21
754.036	12.8
754.215	13.14
754.393	12.54
754.571	12.63
754.75	12.82
754.928	13.04
755.106	13.44
755.284	13.98
755.463	13.86
755.641	14.02
755.819	13.64
755.997	14.07
756.176	13.83
756.354	14.2
756.532	14.24
756.71	13.79
756.888	12.9
757.066	14.22
757.245	13.7
757.423	13.08
757.601	13.14
757.779	12.68
757.957	13.2
758.135	13.14
758.313	13.64
758.491	13.66
758.669	13.42
758.847	12.83
759.025	13.67
759.203	13.71
759.381	13.69
759.559	13.31
759.737	12.94
759.915	13.39
760.092	13.49
760.27	13.25
760.448	12.47
760.626	13.11
760.804	13.26
760.981	13.04
761.159	13.27
761.337	13.84
761.515	14.01
761.692	13.2
761.87	13.34
762.048	12.82
762.226	13.16
762.403	13.2
762.581	13.05
762.759	13.64
762.936	14.22
763.114	14.39
763.291	13.57
763.469	13.6
763.647	14.54
763.824	13.51
764.002	13.38
764.179	13.69
764.357	13.07
764.534	13.36
764.712	13.99
764.889	12.92
765.066	13.5
765.244	12.7
765.421	13.14
765.599	13.42
765.776	12.96
765.953	13.02
766.131	12.99
766.308	12.47
766.485	13.73
766.663	13.74
766.84	13.1
767.017	13.1
767.194	12.93
767.372	13.16
767.549	13.63
767.726	13.31
767.903	13.1
768.081	12.69
768.258	13.64
768.435	13.08
768.612	13.1
768.789	13.28
768.966	13.34
769.143	12.91
769.32	13.36
769.497	12.95
769.674	13.18
769.851	13.15
770.028	12.88
770.205	13.5
770.382	12.3
770.559	12.98
770.736	13.89
770.913	13.54
771.09	14.13
771.267	12.35
771.444	12.62
771.621	13.11
771.798	13.8
771.975	13.18
772.151	13.83
772.328	13.24
772.505	12.83
772.682	12.94
772.859	13.59
773.035	12.38
773.212	12.8
773.389	13.21
773.565	12.46
773.742	13.14
773.919	12.17
774.096	12.83
774.272	12.22
774.449	12.03
774.625	12.57
774.802	12.17
774.979	13.01
775.155	12.83
775.332	12.74
775.508	13.5
775.685	12.64
775.861	12.46
776.038	14.07
776.214	12.88
776.391	13
776.567	12.04
776.744	13.65
776.92	13.9
777.096	12.4
777.273	12.41
777.449	13.89
777.626	11.92
777.802	13.04
777.978	13.64
778.155	12.62
778.331	12.97
778.507	12.48
778.683	12.25
778.86	12.01
779.036	13.62
779.212	13.01
779.388	13.92
779.565	12.61
779.741	13.98
779.917	12.79
780.093	12.03
780.269	11.02
780.445	11.99
780.621	12.52
780.797	12.05
780.974	11.57
781.15	12.93
781.326	11.85
781.502	11.7
781.678	11.68
781.854	11.8
782.03	11.27
782.206	12.17
782.382	11.8
782.558	13.09
782.733	13.35
782.909	12.33
783.085	13.41
783.261	12.95
783.437	11.48
783.613	11.63
783.789	11.58
783.965	12.97
784.14	11.77
784.316	12.2
784.492	10.57
784.668	12.22
784.843	11.77
785.019	14.06
785.195	11.11
785.371	13.09
785.546	12.37
785.722	12.37
785.898	11.95
786.073	13.93
786.249	12.7
786.424	14.39
786.6	12.03
786.776	11.58
786.951	9.88
787.127	12.41
787.302	11.9
787.478	11.77
787.653	10.58
787.829	11.16
788.004	12.39
788.18	12.74
788.355	11.71
788.531	11.54
788.706	12.81
788.881	9.85
789.057	13.2
789.232	10.74
789.408	14.25
789.583	13.31
789.758	11.09
789.934	12.28
790.109	10.95
790.284	12.42
790.459	11.6
790.635	12.22
790.81	12.54
790.985	12.32
791.16	10.61
791.336	11.72
791.511	12.03
791.686	11.62
791.861	12.04
792.036	12.81
792.211	11.86
792.387	11.59
792.562	11.68
792.737	10.46
792.912	9.6
793.087	13.04
793.262	12.78
793.437	10.92
793.612	10.88
793.787	13.16
793.962	13.43
794.137	13.19
794.312	9.2
794.487	14.04
794.662	11.26
794.837	11.3
795.011	11.65
795.186	11.77
795.361	9.99
795.536	9.72
795.711	10.15
795.886	11.66
796.06	9.1
796.235	11.72
796.41	9.92
796.585	12.21
796.76	10.51
796.934	11.7
797.109	12.46
797.284	11.53
797.458	11.35
797.633	14.35
797.808	12.22
797.982	12.82
798.157	13.37
798.332	13.04
798.506	11.58
798.681	10.86
798.855	11.77
799.03	12.52
799.204	12.4
799.379	12.69
799.553	10.49
799.728	10.42
799.902	8.62
800.077	11.42
800.251	11.87
800.426	12.59
800.6	10.5
800.775	12.59
800.949	9.4
801.123	13.95
801.298	10.65
801.472	14
801.647	11.55
801.821	9.22
801.995	12.63
802.169	10.88
802.344	12.51
802.518	12.85
802.692	9.24
802.867	12.02
803.041	11.94
803.215	11.8
803.389	11.33
803.563	11.14
803.737	12.44
803.912	12.61
804.086	11.87
804.26	10.71
804.434	11.59
804.608	10.86
804.782	13.21
804.956	15.2
805.13	12.77
805.304	8.99
805.478	11.82
805.652	12.29
805.826	16.49
806	12.64
806.174	12.26
806.348	12.1
806.522	11.84
806.696	12.11
806.87	11.54
807.044	13.56
807.218	13.71
807.392	12.42
807.566	11.68
807.739	10.99
807.913	6.65
808.087	12.88
808.261	10.24
808.435	10.18
808.608	11.44
808.782	10.38
808.956	9.97
809.13	9.5
809.303	12.35
809.477	8.75
809.651	14.83
809.824	10.15
809.998	13.37
810.172	9.38
810.345	15.94
810.519	12.27
810.692	11.69
810.866	8.41
811.04	10.15
811.213	14.65
811.387	8.75
811.56	12.15
811.734	12.95
811.907	12.68
812.081	11.39
812.254	12.42
812.428	10.29
812.601	13.27
812.774	11.16
812.948	10.11
813.121	11.3
813.295	9.46
813.468	12.84
813.641	8.04
813.815	11.25
813.988	12.81
814.161	8.86
814.335	12.52
814.508	9.81
814.681	12.02
814.854	10.68
815.028	14.69
815.201	9.13
815.374	7.6
815.547	7.79
815.72	13.72
815.894	11.22
816.067	11.85
816.24	8.81
816.413	13.82
816.586	9.53
816.759	15.74
816.932	10.69
817.105	14.46
817.278	8.47
817.452	10.74
817.625	12.83
817.798	13.52
817.971	12.06
818.144	5.11
818.317	15.09
818.49	8.37
818.662	9.46
818.835	11.91
819.008	8.92
819.181	10.38
819.354	12.03
819.527	13.61
819.7	9.71
819.873	12.59
820.046	12.52
820.218	12.63
820.391	11.98
820.564	9.52
820.737	10.84
820.909	13.53
821.082	8.16
821.255	13.77
821.428	14.93
821.6	11.39
821.773	13.85
821.946	12.6
822.118	11.71
822.291	13.02
822.464	7.77
822.636	12.75
822.809	9.98
822.982	11.29
823.154	16.11
823.327	7.35
823.499	7.95
823.672	14.52
823.844	6.09
824.017	11.69
824.189	14.69
824.362	9.88
824.534	13.01
824.707	12.33
824.879	6.72
825.052	10.68
825.224	9.41
825.396	12.42
825.569	11.46
825.741	8.56
825.914	13.72
826.086	13.13
826.258	11.71
826.431	14.96
826.603	9.29
826.775	10.57
826.947	9.53
827.12	14.52
827.292	14.75
827.464	10.19
827.636	11.19
827.809	12.99
827.981	9.71
828.153	9.59
828.325	6.6
828.497	9.53
828.669	11.34
828.842	7.61
829.014	8.1
829.186	11.24
829.358	10.8
829.53	15.35
829.702	8.7
829.874	11.99
830.046	11.24
830.218	13.54
830.39	9
830.562	12.27
830.734	12.57
830.906	8.73
831.078	11.4
831.25	14.64
831.422	10.81
831.594	12.17
831.766	10.42
831.937	13.24
832.109	11.55
832.281	9.85
832.453	5.98
832.625	13.36
832.797	11.67
832.968	12.58
833.14	12.36
833.312	9.53
833.484	9.33
833.655	10.72
833.827	8.04
833.999	8.5
834.171	11.07
834.342	10.75
834.514	12.77
834.686	12.22
834.857	12.56
835.029	6.22
835.2	12.3
835.372	8.05
835.544	12.38
835.715	8.85
835.887	14.15
836.058	8.26
836.23	10.56
836.401	12.51
836.573	14.79
836.744	8.12
836.916	8.97
837.087	8.51
837.259	10.52
837.43	6.39
837.602	11.26
837.773	10.81
837.945	10.44
838.116	12.82
838.287	3.97
838.459	12.93
838.63	10.27
838.801	11.68
838.973	7.48
839.144	8.8
839.315	11.57
839.487	8.59
839.658	13.08
839.829	13.6
840	4.41
840.172	9.14
840.343	7.76
840.514	15.51
840.685	13.72
840.856	10.04
841.027	12.86
841.199	14.1
841.37	10.29
841.541	10.12
841.712	13.95
841.883	13.44
842.054	11.11
842.225	15.25
842.396	11.49
842.567	6.13
842.738	11.18
842.909	11.89
843.08	12.69
843.251	6.42
843.422	9
843.593	10.67
843.764	7.83
843.935	11.5
844.106	10.99
844.277	14.18
844.448	11.28
844.619	11.26
844.79	13.82
844.96	12.96
845.131	12.15
845.302	6.95
845.473	11.85
845.644	10.35
845.814	9.12
845.985	6.49
846.156	12.3
846.327	4.89
846.497	10.86
846.668	11.77
846.839	10.78
847.01	10.81
847.18	13.7
847.351	9.74
847.522	11.92
847.692	6.24
847.863	13.76
848.033	14.67
848.204	12.41
848.375	6.94
848.545	14.41
848.716	13.14
848.886	11.38
849.057	7.89
849.227	17.43
849.398	5.13
849.568	13.38
849.739	18.99
849.909	15.27
850.08	8.9
850.25	7.61
850.421	7.14
850.591	11.71
850.761	4.95
850.932	6.06
851.102	2.04
851.272	10.47
851.443	10.21
851.613	6.6
851.783	7.16
851.954	4.86
852.124	8.33
852.294	10.73
852.465	7.66
852.635	9.02
852.805	7.78
852.975	11.05
853.145	7.82
853.316	13.58
853.486	11.23
853.656	12.4
853.826	10.15
853.996	5.28
854.166	8.69
854.337	10.51
854.507	9.54
854.677	9.66
854.847	13.65
855.017	8.47
855.187	15.24
855.357	3.98
855.527	10.82
855.697	7.76
855.867	4.12
856.037	8.91
856.207	10.98
856.377	12.61
856.547	12.62
856.717	15.19
856.887	8.1
857.057	9.98
857.227	6.7
857.397	18.2
857.566	12.76
857.736	14.51
857.906	7.65
858.076	10.15
858.246	6.25
858.416	14.36
858.585	12.25
858.755	6.36
858.925	5.86
859.095	16.48
859.264	14.72
859.434	6.72
859.604	6.46
859.774	7.53
859.943	9.52
860.113	9.79
860.283	3.31
860.452	15.57
860.622	8.59
860.791	9.81
860.961	6.96
861.131	9.31
861.3	11.37
861.47	3.32
861.639	1.57
861.809	17.79
861.978	5.63
862.148	2.69
862.318	10.72
862.487	11.23
862.657	9.88
862.826	6.47
862.995	8.02
863.165	15.54
863.334	4.27
863.504	11.52
863.673	8.42
863.843	2.4
864.012	12.04
864.181	16.08
864.351	4.3
864.52	7.64
864.689	1.1
864.859	-0.08
865.028	0.53
865.197	1.96
865.366	15.05
865.536	15.02
865.705	9.78
865.874	11.99
866.043	11.99
866.213	7.25
866.382	9.75
866.551	9.42
866.72	19.02
866.889	8.94
867.059	-0.08
867.228	11.64
867.397	2.91
867.566	-0.08
867.735	14.47
867.904	15.12
868.073	5.82
868.242	20.51
868.411	6.1
868.58	-3.5
868.749	5.77
868.918	7.18
869.087	9.01
869.256	7.62
869.425	16.41
869.594	7.15
869.763	9.77
869.932	15.06
870.101	-2.86
870.27	0.61
870.439	8.05
870.608	12.22
870.777	10.73
870.945	6.88
871.114	10.73
871.283	10.79
871.452	16.23
871.621	18.96
871.789	9.3
871.958	5
872.127	9.76
872.296	9.76
872.464	10.75
872.633	18.47
872.802	13.52
872.971	15.39
873.139	9.35
873.308	10.73
873.477	2.78
873.645	12.15
873.814	11.29
873.983	4.79
874.151	15.79
874.32	10.86
874.488	8.2
874.657	7.88
874.826	19.22
874.994	14.29
875.163	-0.61
875.331	14.1
875.5	8.59
875.668	21.07
875.837	20.04
876.005	1.65
876.174	17.82
876.342	12.98
876.51	8.91
876.679	16.81
876.847	12.68
877.016	-9.02
877.184	0.17
877.352	10.84
877.521	10.62
877.689	15
877.857	-1.46
878.026	10.16
878.194	9.17
878.362	5.01
878.531	4.86
878.699	12.63
878.867	4.95
879.036	-3.62
879.204	11.81
879.372	5.66
879.54	14.94
879.708	26.43
879.877	13.09
880.045	7.11
880.213	10.63
880.381	8.87
880.549	24.27
880.717	9.64
880.885	10.27
881.054	-3.96
881.222	15.41
881.39	7.94
881.558	16.73
881.726	7.29
881.894	17.17
882.062	6.58
882.23	11.09
882.398	8.25
882.566	-0.42
882.734	9.24
882.902	25.25
883.07	7.22
883.238	20.35
883.406	2.36
883.574	-2.86
883.741	10.17
883.909	11.19
884.077	28.65
884.245	0.85
884.413	6.96
884.581	2.33
884.749	6.8
884.916	17.59
885.084	3.62
885.252	12.79
885.42	21.91
885.587	24.29
885.755	14.68
885.923	7.02
886.091	14.38
886.258	7.8
886.426	4.52
886.594	13.57
886.761	0.55
886.929	-6.09
887.097	5.1
887.264	20.34
887.432	28.17
887.6	0.93
887.767	5.09
887.935	11.48
888.102	4.68
888.27	8.2
888.438	11.4
888.605	4.81
888.773	19.15
888.94	12.78
889.108	5.11
889.275	20.39
889.443	9.78
889.61	7.1
889.778	1.38
889.945	-0.15
890.112	6.17
890.28	3.26
890.447	25.86
890.615	10.29
890.782	10.06
890.949	-3.77
891.117	6.24
891.284	3.39
891.452	-5.39
891.619	-3.17
891.786	9.34
891.953	7.17
892.121	20.23
892.288	17.88
892.455	14.86
892.623	16.54
892.79	14.93
892.957	2.94
893.124	19.15
893.291	-9.48
893.459	13.44
893.626	20.05
893.793	7.84
893.96	9.42
894.127	10.4
894.294	11.55
894.461	-7.48
894.629	20.6
894.796	-11.26
894.963	11.12
895.13	7.71
895.297	-0.14
895.464	19.72
895.631	13.8
895.798	18.3
895.965	13.93
896.132	7.6
896.299	6.28
896.466	7.46
896.633	9.6
896.8	7.83
896.967	16.39
897.134	15.25
897.301	10.83
897.467	10.92
897.634	18.75
897.801	5.25
897.968	16.97
898.135	9.18
898.302	3.74
898.469	15.01
898.635	16.75
898.802	6.64
898.969	9.3
899.136	6.17
899.303	7.34
