Data from y0_Transmission_15-22-46-757.txt Node
Date: Thu May 02 15:22:46 EDT 2019
User: dh1006
Spectrometer: USB4E01358
Autoset integration time: false
Trigger mode: 4
Integration Time (sec): 8.000000E-2
Scans to average: 1
Electric dark correction enabled: true
Nonlinearity correction enabled: false
Boxcar width: 0
Stray light correction enabled: false
XAxis mode: Wavelengths
Stop averaging: false
Number of Pixels in Spectrum: 3648
>>>>>Begin Spectral Data<<<<<
176.727	-396.67
176.966	-396.67
177.205	-396.67
177.444	66.85
177.683	21.39
177.922	8.37
178.161	94.44
178.4	-128
178.638	-4925
178.877	373.91
179.116	627.37
179.355	186.36
179.593	-145.82
179.832	130.37
180.071	-38.6
180.309	1755.56
180.548	128.52
180.786	-128.97
181.025	-6550
181.263	62.07
181.502	130.25
181.74	-2.73
181.979	42.86
182.217	-189.02
182.456	139.53
182.694	-21.2
182.932	36.67
183.17	82.36
183.409	25.17
183.647	47.68
183.885	134.74
184.123	111.9
184.361	197.84
184.6	-23.6
184.838	3633.33
185.076	-26.79
185.314	25.05
185.552	19.1
185.79	-70.88
186.028	104.14
186.266	112.5
186.503	90.64
186.741	-48.4
186.979	-80.95
187.217	925
187.455	42.86
187.693	10.05
187.93	8.17
188.168	681.25
188.406	17.71
188.643	18.12
188.881	-398.55
189.119	163.92
189.356	58.33
189.594	65.82
189.831	-55.37
190.069	-197.83
190.306	-48.02
190.543	-9.88
190.781	268.53
191.018	6.02
191.256	706.56
191.493	-23.1
191.73	-188.58
191.967	19.64
192.205	-166.58
192.442	-29.24
192.679	-10775
192.916	-58.12
193.153	68.92
193.39	-653.57
193.628	426.67
193.865	-35.63
194.102	63.49
194.339	57.86
194.576	83.75
194.813	75.23
195.049	-82.5
195.286	21.41
195.523	-78.49
195.76	14.62
195.997	26.88
196.234	55.98
196.47	-38.06
196.707	-1.49
196.944	-77.15
197.18	29.93
197.417	-29.69
197.654	-0.23
197.89	99.12
198.127	-41.26
198.363	345.98
198.6	-7.25
198.836	120.44
199.073	40.21
199.309	79.12
199.546	27.59
199.782	-154.25
200.018	-830
200.255	110.79
200.491	-941.86
200.727	-76.61
200.963	-19.18
201.199	4.38
201.436	-57.3
201.672	19.19
201.908	38.35
202.144	54
202.38	-481.05
202.616	28.68
202.852	188.12
203.088	29.4
203.324	66.32
203.56	-1143.9
203.796	29.37
204.032	-55.74
204.268	1250
204.503	132.81
204.739	104.05
204.975	-77.15
205.211	-58.67
205.446	45.15
205.682	-0.28
205.918	-367.44
206.153	-49.23
206.389	40.28
206.625	176.27
206.86	62.27
207.096	-155.62
207.331	50.41
207.567	82.8
207.802	113.61
208.037	96.96
208.273	57.42
208.508	-218.52
208.744	26.02
208.979	48.96
209.214	-3300
209.449	32.13
209.685	-61.18
209.92	-38.73
210.155	-55.46
210.39	-136.06
210.625	367.86
210.86	-125.1
211.095	389.71
211.33	-10.2
211.565	-266.67
211.8	331.03
212.035	406.61
212.27	100.77
212.505	60.64
212.74	58.88
212.975	1604.55
213.21	146.65
213.444	98.18
213.679	-41.26
213.914	-35.11
214.149	-81.17
214.383	23.67
214.618	64.83
214.853	-85.81
215.087	152.69
215.322	129.79
215.556	31.66
215.791	-216.28
216.025	84.3
216.26	-87.54
216.494	336.49
216.729	214.81
216.963	28.73
217.197	8.88
217.432	56.42
217.666	29.27
217.9	-29.14
218.135	37.94
218.369	3344.44
218.603	257.49
218.837	56.22
219.071	5.86
219.306	103.55
219.54	92.19
219.774	15.99
220.008	109.58
220.242	-259.5
220.476	-317.65
220.71	135.2
220.944	65.59
221.178	-525.61
221.411	-135.17
221.645	43.83
221.879	74.83
222.113	-2303.33
222.347	72.68
222.58	-43.43
222.814	26.2
223.048	-278.7
223.281	-21
223.515	381.42
223.749	-115
223.982	-55.49
224.216	405
224.449	446.05
224.683	-67.57
224.916	-182.41
225.15	126.15
225.383	483
225.617	-27.23
225.85	27.65
226.083	215.65
226.317	-19.27
226.55	57.79
226.783	419.44
227.016	40.89
227.25	1454.29
227.483	437.5
227.716	45.4
227.949	84.08
228.182	65.19
228.415	36.39
228.648	-334.37
228.881	-62.06
229.114	-26.2
229.347	36.94
229.58	262
229.813	193.23
230.046	-25.38
230.279	15.99
230.512	68.64
230.745	44.34
230.977	94.44
231.21	70.77
231.443	5.54
231.675	-50
231.908	-700
232.141	45.22
232.373	-508.42
232.606	-72.11
232.839	-39.56
233.071	-93.33
233.304	-133.71
233.536	107.37
233.769	258.53
234.001	119.5
234.233	118.52
234.466	-18.56
234.698	211.27
234.93	-171.03
235.163	70.84
235.395	86.05
235.627	-40.15
235.86	-360.87
236.092	52.28
236.324	23.55
236.556	14.38
236.788	33.53
237.02	-22.54
237.252	47.18
237.484	16.1
237.716	-266.67
237.948	170.96
238.18	30.58
238.412	214.57
238.644	346.09
238.876	-9.37
239.108	-165.19
239.34	408.2
239.571	-30.99
239.803	59.04
240.035	176.95
240.267	87.16
240.498	-1277.78
240.73	-529.51
240.962	-138.19
241.193	172.92
241.425	68.64
241.656	57.55
241.888	-4.08
242.119	75.96
242.351	55.81
242.582	152.36
242.814	41.32
243.045	56.08
243.277	114.93
243.508	2.7
243.739	134.1
243.971	12.1
244.202	3.4
244.433	-113.87
244.664	-9.49
244.896	52.85
245.127	27.04
245.358	-1048.21
245.589	284.39
245.82	255.33
246.051	-17.94
246.282	76.51
246.513	-174.16
246.744	41.53
246.975	60.98
247.206	132.34
247.437	65.35
247.668	-242.59
247.899	55.88
248.129	-90.62
248.36	-66.51
248.591	63.68
248.822	-39.73
249.052	173.13
249.283	86.98
249.514	-8.19
249.744	10.31
249.975	28.16
250.206	-99.48
250.436	129.79
250.667	356.83
250.897	21.03
251.128	30.21
251.358	-172.97
251.589	137.78
251.819	-15.95
252.049	-24.19
252.28	75.27
252.51	50.41
252.74	72.28
252.971	2225
253.201	105.85
253.431	1.53
253.661	-117.45
253.891	331.87
254.121	-4.62
254.352	137.78
254.582	-254.29
254.812	25.1
255.042	116.58
255.272	-58.53
255.502	17.12
255.732	-122.22
255.962	450.82
256.192	25.75
256.421	102.31
256.651	5.38
256.881	45.33
257.111	105.97
257.341	98.61
257.57	55.33
257.8	1.68
258.03	152.75
258.259	-63.56
258.489	50.77
258.719	25.05
258.948	-50.87
259.178	35.57
259.407	162.83
259.637	76.9
259.866	-41.88
260.096	-190.45
260.325	81.5
260.555	86.55
260.784	31.87
261.013	-328.57
261.243	108.57
261.472	301.35
261.701	-87.56
261.931	-45.08
262.16	156.59
262.389	15.99
262.618	-89.39
262.847	83.13
263.076	65.68
263.305	-21
263.535	-123.58
263.764	50.52
263.993	56.67
264.222	23.9
264.451	18.94
264.679	-1.55
264.908	-26.58
265.137	35.33
265.366	22.45
265.595	132.46
265.824	-8.26
266.053	7.08
266.281	-151.45
266.51	-20.3
266.739	20.32
266.967	36.22
267.196	-3300
267.425	-36.8
267.653	-164.12
267.882	53.24
268.11	63.49
268.339	-62.82
268.567	-50
268.796	-263.03
269.024	321.43
269.253	-99.48
269.481	161.15
269.709	63.45
269.938	136.26
270.166	37.72
270.394	-166.57
270.623	70.84
270.851	-8.19
271.079	5.38
271.307	55.7
271.535	68.7
271.764	-13.89
271.992	194.33
272.22	-20.45
272.448	86.84
272.676	-15.79
272.904	-72.41
273.132	-40.49
273.36	20.38
273.588	78.8
273.816	-0.36
274.043	47.58
274.271	59.74
274.499	114.67
274.727	-314.81
274.955	83.66
275.182	36.59
275.41	-105.91
275.638	177.62
275.866	1250
276.093	37.43
276.321	-381.13
276.548	44.92
276.776	-93.9
277.003	132.35
277.231	-328.57
277.458	16.56
277.686	47.5
277.913	-171.87
278.141	21.81
278.368	20.91
278.595	57.03
278.823	-18.29
279.05	121.3
279.277	-33.43
279.505	-18.62
279.732	-151
279.959	1231.43
280.186	-57.99
280.413	-25.13
280.641	-219.08
280.868	36.14
281.095	119.33
281.322	-50
281.549	-60.44
281.776	-33.45
282.003	20.36
282.23	-63.45
282.457	64.3
282.683	10.17
282.91	6.88
283.137	40.23
283.364	422.73
283.591	-219.33
283.818	9700
284.044	-790.7
284.271	7.25
284.498	-30.69
284.724	7.22
284.951	-3.63
285.178	51.04
285.404	62.32
285.631	-46.7
285.857	-25.17
286.084	-172.64
286.31	-73.64
286.537	80.6
286.763	42
286.99	22.45
287.216	2622.22
287.442	-248.98
287.669	61.31
287.895	60.12
288.121	-185.61
288.347	-33.61
288.574	-0.27
288.8	76.69
289.026	-50
289.252	-103.63
289.478	-108.21
289.704	51.04
289.931	13.76
290.157	40.78
290.383	-5.74
290.609	50.47
290.835	-63.74
291.06	58.88
291.286	50.66
291.512	89.02
291.738	72.81
291.964	47.14
292.19	-66.39
292.416	-133.87
292.641	28.26
292.867	-26.04
293.093	860
293.319	63.66
293.544	4.17
293.77	138.71
293.995	150.69
294.221	-99.52
294.447	69.83
294.672	15.55
294.898	14.8
295.123	12.69
295.349	48.73
295.574	-81.71
295.799	-3.46
296.025	-23.45
296.25	-38.98
296.476	-206
296.701	-17.08
296.926	61.09
297.151	-45.08
297.377	42.86
297.602	-152.85
297.827	71.23
298.052	104.38
298.277	21.42
298.502	7.37
298.727	197.38
298.953	17.49
299.178	89.29
299.403	364.82
299.628	-21.46
299.852	-50
300.077	-2841.18
300.302	4.58
300.527	-102.79
300.752	31.53
300.977	288
301.202	3.28
301.426	-38.06
301.651	-15.95
301.876	-50
302.101	-114.74
302.325	63.52
302.55	140.07
302.775	-92.39
302.999	10.97
303.224	35.76
303.448	38.4
303.673	-591.67
303.897	34.97
304.122	-8.45
304.346	112.74
304.571	51.5
304.795	-284.35
305.019	3.99
305.244	48.96
305.468	881.08
305.692	332.12
305.917	191.74
306.141	-18.83
306.365	536.07
306.589	-53.1
306.813	36.54
307.038	33.57
307.262	-99.34
307.486	70.71
307.71	275
307.934	53.46
308.158	-497.11
308.382	-23.77
308.606	-155.88
308.83	25.04
309.054	-168.44
309.278	74.2
309.502	42.86
309.725	-68.79
309.949	88.35
310.173	48.37
310.397	43.5
310.62	76.12
310.844	-197.83
311.068	-131.25
311.292	25.03
311.515	32.96
311.739	-185.42
311.962	47.04
312.186	-18.61
312.41	-15.66
312.633	-11.44
312.857	76.33
313.08	-483.33
313.303	73.94
313.527	37.77
313.75	98.02
313.974	-31.84
314.197	-10.11
314.42	119.63
314.644	98.8
314.867	52.48
315.09	17.32
315.313	18.14
315.536	-0.24
315.76	-283.1
315.983	50.61
316.206	2
316.429	145
316.652	-203.11
316.875	28.47
317.098	63.95
317.321	-21.32
317.544	-155.62
317.767	71.73
317.99	77.6
318.213	-7
318.436	3.48
318.658	18.31
318.881	-116.1
319.104	-6.67
319.327	51.38
319.55	71.71
319.772	202.88
319.995	903.33
320.218	19.69
320.44	393.65
320.663	118.27
320.885	-40.1
321.108	18.42
321.331	25.05
321.553	106.33
321.776	600
321.998	37.1
322.22	30.72
322.443	-89.39
322.665	-24
322.888	8.56
323.11	52.75
323.332	47.83
323.555	13.73
323.777	56.43
323.999	-7.51
324.221	85.36
324.443	53.1
324.666	-32.82
324.888	60.74
325.11	-238.02
325.332	234.17
325.554	11.32
325.776	103
325.998	1386.05
326.22	-398.55
326.442	-55.51
326.664	57.03
326.886	-37.74
327.108	88.97
327.33	28
327.551	27.2
327.773	32.46
327.995	37.44
328.217	29.92
328.439	15.71
328.66	-41.12
328.882	138.02
329.104	-537.5
329.325	5.55
329.547	90.35
329.769	72.28
329.99	-33.49
330.212	280.33
330.433	94.04
330.655	9.83
330.876	41.03
331.098	514.75
331.319	-12.66
331.54	25.03
331.762	-0.48
331.983	-13.45
332.204	81.17
332.426	53.24
332.647	117.98
332.868	68.64
333.089	-144.14
333.311	77.51
333.532	-2.49
333.753	166.67
333.974	16.91
334.195	34.78
334.416	76.91
334.637	-84.95
334.858	50.47
335.079	-92.76
335.3	-34.99
335.521	-98.99
335.742	-247.83
335.963	76.53
336.184	140.65
336.405	48.33
336.626	35.14
336.846	-17.09
337.067	-34.52
337.288	22.02
337.509	-1566.67
337.729	17.98
337.95	-881.4
338.171	44.72
338.391	-51.42
338.612	59.2
338.833	1358.33
339.053	66.57
339.274	8.49
339.494	26.2
339.715	393.65
339.935	-8.86
340.156	32.63
340.376	32.06
340.596	8.55
340.817	525.71
341.037	28.16
341.257	46.4
341.478	27.19
341.698	48.91
341.918	-448.12
342.138	-30.15
342.359	-50
342.579	-80.21
342.799	18.94
343.019	27.15
343.239	15.42
343.459	159.32
343.679	37.94
343.899	20.62
344.119	-13.98
344.339	-66.46
344.559	10.99
344.779	32.73
344.999	4.36
345.219	20.98
345.439	-0.52
345.658	2188.89
345.878	410.42
346.098	2.4
346.318	32.32
346.537	186.36
346.757	30.88
346.977	29.27
347.196	18.29
347.416	22.65
347.636	-41.92
347.855	31.93
348.075	-10.61
348.294	153.13
348.514	118.52
348.733	-2.73
348.953	-440
349.172	-330.22
349.392	-51.71
349.611	49.43
349.83	13.59
350.05	-83.54
350.269	-75.78
350.488	23.7
350.707	-505.75
350.927	19.43
351.146	70.93
351.365	42.58
351.584	-123.86
351.803	41.95
352.023	40.63
352.242	66.63
352.461	51.11
352.68	185.66
352.899	11.18
353.118	-67.78
353.337	4.17
353.556	7.02
353.775	42.53
353.993	-92.89
354.212	77.61
354.431	-21.36
354.65	71.49
354.869	36.25
355.088	31.85
355.306	21.61
355.525	-8.41
355.744	-27.24
355.962	-70.97
356.181	-260.81
356.4	67.84
356.618	-55.28
356.837	68.78
357.055	-16.26
357.274	97.73
357.492	-206.48
357.711	-15.86
357.929	53.65
358.148	-370.67
358.366	121.05
358.585	8.43
358.803	-167.99
359.021	13.27
359.24	67.16
359.458	-122.74
359.676	106.98
359.894	-14.23
360.113	77.22
360.331	-21.03
360.549	1231.43
360.767	-13.58
360.985	308.96
361.203	-10.31
361.421	6.55
361.639	12.23
361.857	67.52
362.075	50.49
362.293	80
362.511	-99.37
362.729	-60.6
362.947	-78.54
363.165	55.63
363.383	-1.49
363.601	28
363.819	6.09
364.036	-66.55
364.254	134.77
364.472	1.68
364.689	105.63
364.907	10.97
365.125	55.63
365.342	-61.27
365.56	68.34
365.778	3.28
365.995	-50
366.213	131.72
366.43	36.83
366.648	-31.94
366.865	43.68
367.083	-23.45
367.3	-40.15
367.517	112.5
367.735	-10.41
367.952	-10.67
368.17	42.86
368.387	61.48
368.604	20.72
368.821	21.72
369.039	18.63
369.256	35.85
369.473	-5.83
369.69	-0.58
369.907	1900
370.124	2136.36
370.341	0.98
370.558	-27.22
370.776	1.03
370.993	6.57
371.21	3.1
371.426	-122.87
371.643	-6.26
371.86	40.67
372.077	17.24
372.294	26.28
372.511	-73.75
372.728	23.09
372.945	-13.68
373.161	8.03
373.378	18.42
373.595	26.39
373.811	104.2
374.028	18.99
374.245	11.74
374.461	56.96
374.678	18.24
374.895	-57.65
375.111	-63.77
375.328	64.05
375.544	1127.03
375.761	15.55
375.977	52.63
376.194	-21.81
376.41	-19.59
376.626	-54.36
376.843	48.19
377.059	22.22
377.275	8.92
377.492	42.29
377.708	-58.69
377.924	5.83
378.14	26.47
378.357	14.78
378.573	180.38
378.789	-4.87
379.005	28.26
379.221	-28.73
379.437	-2.86
379.653	-7.96
379.869	57.26
380.085	-67.32
380.301	56.93
380.517	22.22
380.733	23.24
380.949	-17.41
381.165	3.63
381.381	45.42
381.597	33.7
381.813	24.77
382.028	1.65
382.244	10.48
382.46	3.9
382.676	13.12
382.891	-58.29
383.107	8.82
383.323	27.59
383.538	-50.9
383.754	14.03
383.969	76.02
384.185	50.96
384.4	7.11
384.616	-67.15
384.831	68.68
385.047	-96.17
385.262	25.95
385.478	26.92
385.693	12.39
385.909	26.76
386.124	-17.4
386.339	12.55
386.554	-13.66
386.77	-22.98
386.985	-3.98
387.2	-62.96
387.415	-35.51
387.631	44.37
387.846	0.75
388.061	20.22
388.276	-21.32
388.491	-18.47
388.706	-37.04
388.921	5.51
389.136	-20.26
389.351	70.21
389.566	-32.47
389.781	1.24
389.996	41.45
390.211	21.87
390.426	29.96
390.641	9.19
390.855	-52.93
391.07	37.37
391.285	-13.09
391.5	-18.72
391.714	21.98
391.929	-10.9
392.144	22.35
392.358	5.71
392.573	15.93
392.788	-6.34
393.002	12.33
393.217	28.06
393.431	-19.67
393.646	30.08
393.86	1.74
394.075	3.74
394.289	-0.08
394.504	3.1
394.718	5.31
394.933	-14.67
395.147	5.31
395.361	1.01
395.576	2.69
395.79	-20.51
396.004	-4.74
396.218	-2.89
396.432	8.74
396.647	7.84
396.861	7.22
397.075	12.12
397.289	9.3
397.503	-1.96
397.717	-5.54
397.931	-1.63
398.145	-18.98
398.359	-4.35
398.573	-0.5
398.787	9.85
399.001	5.55
399.215	20.13
399.429	-13.66
399.643	-1.03
399.857	0.69
400.07	6.17
400.284	-1.21
400.498	-9.76
400.712	4.16
400.925	5.28
401.139	-2.92
401.353	-1.46
401.566	4.35
401.78	-0.05
401.994	-0.34
402.207	11.12
402.421	-2.38
402.634	-12.09
402.848	5.45
403.061	-9.43
403.275	8.46
403.488	5.22
403.702	-2.13
403.915	-0.25
404.128	-2.52
404.342	-4.33
404.555	0.4
404.768	6.08
404.982	-1.72
405.195	0.38
405.408	6.7
405.621	3.55
405.835	6.73
406.048	-3.85
406.261	6.33
406.474	11.37
406.687	-0.74
406.9	-1.47
407.113	5.41
407.326	-0.02
407.539	-4.26
407.752	-0.46
407.965	2.71
408.178	6.88
408.391	12.28
408.604	4.94
408.817	-1.35
409.029	-0.4
409.242	0.94
409.455	-1.59
409.668	-1.32
409.881	2.9
410.093	4.44
410.306	4.35
410.519	0.45
410.731	-1.73
410.944	1.24
411.157	2.83
411.369	-1.77
411.582	4.05
411.794	-0.23
412.007	-2.92
412.219	5.78
412.432	1.27
412.644	0.18
412.857	1.66
413.069	6.22
413.281	-0.01
413.494	2.19
413.706	7.58
413.918	4.42
414.131	2.67
414.343	0.69
414.555	4.25
414.767	1.12
414.979	2.93
415.192	-1.18
415.404	0.54
415.616	-0.35
415.828	2.5
416.04	2.3
416.252	3.73
416.464	-0.49
416.676	3.04
416.888	2.39
417.1	-1.21
417.312	3.44
417.524	3.23
417.736	-0.39
417.948	-0.09
418.159	3.11
418.371	4.45
418.583	4.67
418.795	2.31
419.007	4.43
419.218	1.06
419.43	2.38
419.642	-1.65
419.853	-0.99
420.065	2.84
420.276	4.01
420.488	3.26
420.7	1.19
420.911	4.96
421.123	2.05
421.334	5.27
421.546	1.35
421.757	2.05
421.969	0.81
422.18	2.7
422.391	4.05
422.603	0.9
422.814	4.08
423.025	1.4
423.237	1.41
423.448	3.98
423.659	8.4
423.87	0.43
424.082	2.77
424.293	1.35
424.504	4.36
424.715	4.11
424.926	1.95
425.137	-1.18
425.348	3.42
425.559	4.99
425.77	4.52
425.981	2.08
426.192	2.71
426.403	0.39
426.614	0.12
426.825	5.25
427.036	4.96
427.247	2.55
427.458	6.17
427.668	2.08
427.879	3.88
428.09	4.13
428.301	1.95
428.511	0.72
428.722	3.38
428.933	1.72
429.143	1.52
429.354	3.64
429.565	3.72
429.775	4.67
429.986	2.29
430.196	3.32
430.407	1.96
430.617	-0.07
430.828	0.7
431.038	2.46
431.249	0.76
431.459	2.61
431.669	4.71
431.88	6.39
432.09	5.66
432.3	4.5
432.511	3.73
432.721	4.29
432.931	4.34
433.141	5.13
433.351	2.47
433.562	5.95
433.772	5.53
433.982	6.58
434.192	6.74
434.402	5.65
434.612	5.18
434.822	2.95
435.032	5.69
435.242	5.09
435.452	4.54
435.662	2.49
435.872	6.02
436.082	5.57
436.292	5.6
436.502	8.49
436.711	6.82
436.921	6.56
437.131	6.4
437.341	5.24
437.551	8.49
437.76	6.93
437.97	7.07
438.18	5.12
438.389	8.37
438.599	5.5
438.808	6.64
439.018	5.06
439.228	7.58
439.437	6.51
439.647	7.05
439.856	6.09
440.066	10.65
440.275	9.27
440.484	11.48
440.694	8.83
440.903	10.62
441.113	7.69
441.322	10.22
441.531	8.28
441.741	9.81
441.95	10.97
442.159	11.14
442.368	8.93
442.577	10.81
442.787	12.27
442.996	11.72
443.205	9.53
443.414	13.39
443.623	12.27
443.832	11.28
444.041	14.6
444.25	16.57
444.459	13.78
444.668	10.64
444.877	10.76
445.086	14.41
445.295	17.51
445.504	14.1
445.713	14.44
445.922	12.91
446.13	15.09
446.339	14.83
446.548	14.79
446.757	16.23
446.965	12.45
447.174	15.63
447.383	15.09
447.591	12.75
447.8	14.79
448.009	14.26
448.217	15.36
448.426	16.71
448.634	17.45
448.843	15.15
449.051	15.17
449.26	16.98
449.468	20.81
449.677	19.29
449.885	17.65
450.093	16.79
450.302	15.42
450.51	18.23
450.719	15.86
450.927	15.08
451.135	19.37
451.343	15.47
451.552	18.58
451.76	18.42
451.968	17
452.176	16.63
452.384	17.26
452.592	15.28
452.8	14.32
453.009	16.8
453.217	16
453.425	13.53
453.633	14.28
453.841	12.88
454.049	14.39
454.257	12.86
454.464	15.9
454.672	13.95
454.88	14.93
455.088	11.81
455.296	12.11
455.504	14.74
455.711	13.66
455.919	11.66
456.127	14.77
456.335	14.2
456.542	11.93
456.75	11.57
456.958	11.34
457.165	11.96
457.373	12.37
457.581	11.61
457.788	7.8
457.996	7.5
458.203	11.05
458.411	11.6
458.618	7.56
458.826	8.71
459.033	12.05
459.24	12.3
459.448	9.29
459.655	10.88
459.863	8.45
460.07	9.22
460.277	6.64
460.484	8.82
460.692	10.31
460.899	6.36
461.106	8.56
461.313	7.88
461.52	8.29
461.728	8.12
461.935	7.87
462.142	5.21
462.349	10.34
462.556	7.83
462.763	9.36
462.97	4.06
463.177	8.32
463.384	5.64
463.591	6.03
463.798	7.79
464.005	4.91
464.212	6.46
464.418	6.34
464.625	5.83
464.832	7.34
465.039	4.03
465.246	4.67
465.452	5.73
465.659	8.29
465.866	5.81
466.072	4.46
466.279	5.65
466.486	5.36
466.692	5.48
466.899	6.69
467.105	3.8
467.312	6.43
467.519	7.17
467.725	4.4
467.931	3.86
468.138	3.37
468.344	3.69
468.551	3.11
468.757	5.45
468.964	9.25
469.17	4.14
469.376	5.62
469.583	4.12
469.789	5.34
469.995	4.08
470.201	6.1
470.408	5.12
470.614	3.96
470.82	1.56
471.026	0.66
471.232	2.61
471.438	3.75
471.644	4.08
471.85	5.54
472.056	3.89
472.262	6.44
472.468	3.4
472.674	4.01
472.88	3.8
473.086	3.24
473.292	3.67
473.498	1.97
473.704	2.92
473.91	4.31
474.116	4.65
474.321	3.21
474.527	2.72
474.733	2.99
474.939	2.32
475.144	4.75
475.35	1.08
475.556	1.05
475.761	3.34
475.967	1.99
476.173	3.23
476.378	3.22
476.584	2.15
476.789	2.67
476.995	3.9
477.2	4.4
477.406	3.88
477.611	1.53
477.817	2.24
478.022	2.06
478.227	1.7
478.433	3.09
478.638	2.79
478.843	3.65
479.049	3.16
479.254	1.37
479.459	0.96
479.664	1.5
479.87	3.93
480.075	1.25
480.28	3.03
480.485	3.78
480.69	2.69
480.895	1.93
481.1	2.31
481.306	4.11
481.511	2.14
481.716	2.05
481.921	2.39
482.126	2.66
482.33	2.58
482.535	2.33
482.74	1.54
482.945	1.38
483.15	2.64
483.355	1.5
483.56	2.3
483.765	1.43
483.969	0.21
484.174	3.05
484.379	2.27
484.583	1.34
484.788	1.47
484.993	2.27
485.197	3.15
485.402	2.89
485.607	2.36
485.811	1.49
486.016	1.74
486.22	3.51
486.425	2.36
486.629	2.25
486.834	1.58
487.038	2.93
487.243	2.12
487.447	2.57
487.652	2.98
487.856	2.38
488.06	1.2
488.265	2.02
488.469	2
488.673	1.71
488.877	2.06
489.082	2.24
489.286	2.4
489.49	2.02
489.694	1.64
489.898	3.37
490.102	2.49
490.307	1.38
490.511	1.76
490.715	2.05
490.919	1.29
491.123	1.37
491.327	2.58
491.531	1.45
491.735	2.28
491.939	0.92
492.143	1.27
492.346	2.07
492.55	0.84
492.754	1.35
492.958	1.77
493.162	1.29
493.366	1.34
493.569	2.42
493.773	1.64
493.977	2.12
494.18	1.74
494.384	0.97
494.588	2.58
494.791	1.39
494.995	1.81
495.199	1.09
495.402	2.16
495.606	1.7
495.809	2.66
496.013	0.9
496.216	2.29
496.42	0.87
496.623	1.56
496.827	1.43
497.03	1.76
497.233	1.4
497.437	1.85
497.64	1.66
497.843	0.6
498.047	0.55
498.25	2
498.453	0.73
498.656	1.37
498.86	1.24
499.063	2.21
499.266	1.13
499.469	1.66
499.672	1.49
499.875	2.13
500.078	0.18
500.281	1.44
500.484	1.29
500.687	0.61
500.89	1.81
501.093	1.16
501.296	2.3
501.499	0.53
501.702	2.09
501.905	1.42
502.108	2.04
502.311	1.29
502.514	1.59
502.716	1.69
502.919	1.59
503.122	1.42
503.325	2.03
503.527	1.43
503.73	1.21
503.933	1.34
504.135	1.28
504.338	1.88
504.541	1.32
504.743	1.83
504.946	1.56
505.148	1.23
505.351	1.77
505.553	1.23
505.756	1.37
505.958	2.33
506.161	1.67
506.363	0.72
506.565	1.33
506.768	1.68
506.97	0.75
507.172	1.2
507.375	1.66
507.577	0.85
507.779	1.82
507.982	1.25
508.184	0.86
508.386	1.81
508.588	1.11
508.79	1.21
508.993	2.31
509.195	1.26
509.397	1.61
509.599	1.2
509.801	1.06
510.003	1.44
510.205	1.42
510.407	2.25
510.609	1.55
510.811	1.04
511.013	1.14
511.215	0.96
511.417	0.76
511.618	1.01
511.82	1.63
512.022	1.47
512.224	1.16
512.426	1.08
512.627	1.44
512.829	1.69
513.031	1.54
513.233	1.87
513.434	1.29
513.636	1.13
513.838	1.32
514.039	1.87
514.241	1.34
514.442	1.2
514.644	1.69
514.845	1.59
515.047	1.75
515.248	1.36
515.45	1.4
515.651	1.17
515.853	1.55
516.054	1.3
516.256	1.24
516.457	2.44
516.658	1.34
516.86	1.13
517.061	1.26
517.262	1.79
517.463	1.43
517.665	1.64
517.866	1.83
518.067	1.89
518.268	1.81
518.469	0.91
518.67	1.41
518.872	0.46
519.073	1.68
519.274	1.96
519.475	1.32
519.676	1.19
519.877	1.55
520.078	1.65
520.279	1.53
520.48	1.17
520.681	1.36
520.881	1.57
521.082	2.04
521.283	1.45
521.484	1.15
521.685	1.31
521.886	1.08
522.086	1.7
522.287	1.49
522.488	1.48
522.689	1.92
522.889	1.75
523.09	1.46
523.291	1.47
523.491	1.67
523.692	1.35
523.892	1.29
524.093	1.37
524.294	1.48
524.494	1.4
524.695	1.56
524.895	1.57
525.096	1.96
525.296	1.77
525.496	1.73
525.697	1.82
525.897	1.33
526.098	1.74
526.298	2.02
526.498	1.82
526.699	1.59
526.899	2.17
527.099	1.83
527.299	1.92
527.499	1.47
527.7	1.61
527.9	1.91
528.1	1.52
528.3	2.26
528.5	1.68
528.7	1.53
528.9	1.66
529.1	1.92
529.3	1.55
529.5	2.09
529.7	1.62
529.9	1.75
530.1	1.62
530.3	1.47
530.5	1.77
530.7	2.04
530.9	2.15
531.1	1.99
531.3	1.39
531.499	2.19
531.699	1.75
531.899	1.34
532.099	2.12
532.298	1.73
532.498	2.14
532.698	1.82
532.897	2.06
533.097	2.11
533.297	1.57
533.496	2.15
533.696	1.85
533.895	1.85
534.095	1.87
534.294	2.05
534.494	1.79
534.693	1.8
534.893	1.92
535.092	1.89
535.292	1.72
535.491	2.01
535.69	1.56
535.89	1.46
536.089	2.29
536.288	1.91
536.488	1.63
536.687	1.98
536.886	1.7
537.085	1.74
537.285	1.78
537.484	1.9
537.683	2.09
537.882	1.9
538.081	2.39
538.28	2.21
538.479	1.79
538.678	1.86
538.877	2.25
539.076	1.84
539.275	2.2
539.474	2.21
539.673	2.07
539.872	1.78
540.071	2.35
540.27	2.36
540.469	2.29
540.668	2.27
540.867	2.24
541.065	2.18
541.264	1.97
541.463	1.94
541.662	2.07
541.861	2.13
542.059	1.96
542.258	2.07
542.457	2.27
542.655	2.06
542.854	2.06
543.052	2.19
543.251	2.27
543.45	2.51
543.648	2.37
543.847	2.24
544.045	2.19
544.244	2.39
544.442	2.64
544.641	2.26
544.839	2.37
545.037	2.78
545.236	2.73
545.434	2.47
545.632	2.39
545.831	2.46
546.029	2.46
546.227	2.58
546.426	2.6
546.624	2.45
546.822	2.54
547.02	2.48
547.218	2.27
547.417	2.59
547.615	2.57
547.813	2.52
548.011	2.52
548.209	2.92
548.407	2.89
548.605	2.77
548.803	2.54
549.001	2.53
549.199	2.71
549.397	2.76
549.595	3.17
549.793	2.73
549.991	3.1
550.189	2.88
550.387	2.65
550.584	3.13
550.782	2.69
550.98	3.2
551.178	3.01
551.376	2.83
551.573	2.67
551.771	2.96
551.969	2.64
552.166	2.84
552.364	2.8
552.562	2.8
552.759	2.79
552.957	3.19
553.154	3
553.352	3.16
553.55	2.93
553.747	2.99
553.945	3.12
554.142	3.34
554.339	3.18
554.537	3.31
554.734	3.14
554.932	2.97
555.129	2.92
555.326	3.25
555.524	3.33
555.721	3.25
555.918	3.52
556.116	3.12
556.313	3.84
556.51	3.35
556.707	3.59
556.904	3.32
557.102	3.08
557.299	3.53
557.496	3.35
557.693	3.74
557.89	3.33
558.087	3.32
558.284	3.23
558.481	3.46
558.678	3.39
558.875	3.6
559.072	3.68
559.269	3.65
559.466	3.48
559.663	3.48
559.86	3.88
560.057	3.56
560.254	3.59
560.45	3.63
560.647	3.62
560.844	3.74
561.041	4.17
561.237	3.73
561.434	3.87
561.631	3.97
561.828	4.18
562.024	3.96
562.221	3.84
562.418	4.02
562.614	4.05
562.811	4.19
563.007	4.03
563.204	4.29
563.4	4.1
563.597	4.29
563.793	3.84
563.99	4.41
564.186	4.46
564.383	4.24
564.579	4.46
564.775	4.66
564.972	4.58
565.168	4.38
565.365	4.61
565.561	4.59
565.757	4.92
565.953	4.81
566.15	4.84
566.346	5.03
566.542	4.79
566.738	5.04
566.934	4.91
567.131	4.57
567.327	5.23
567.523	4.86
567.719	4.98
567.915	5.07
568.111	4.98
568.307	5.25
568.503	4.91
568.699	4.77
568.895	5.49
569.091	5.19
569.287	5.35
569.483	5.33
569.679	5.45
569.875	5.22
570.07	5.35
570.266	5.5
570.462	5.62
570.658	5.46
570.854	5.47
571.049	5.42
571.245	5.62
571.441	5.93
571.636	5.39
571.832	5.53
572.028	5.64
572.223	5.73
572.419	5.7
572.615	5.28
572.81	6.16
573.006	6
573.201	5.85
573.397	6
573.592	6.22
573.788	5.85
573.983	6.05
574.179	6.26
574.374	6.43
574.569	6.63
574.765	6.25
574.96	6.28
575.156	6.41
575.351	6.42
575.546	6.69
575.741	6.49
575.937	6.9
576.132	6.71
576.327	6.84
576.522	6.52
576.718	6.79
576.913	6.69
577.108	6.89
577.303	6.85
577.498	6.89
577.693	7.13
577.888	6.97
578.083	7.11
578.278	7.15
578.473	7.05
578.668	7.51
578.863	7.17
579.058	7.17
579.253	7.45
579.448	7.72
579.643	7.63
579.838	7.57
580.033	7.23
580.227	7.74
580.422	7.74
580.617	7.91
580.812	7.58
581.006	7.98
581.201	8.18
581.396	7.86
581.591	8.14
581.785	8.31
581.98	8.34
582.175	8.48
582.369	8.62
582.564	8.92
582.758	9.11
582.953	9.12
583.147	9.19
583.342	8.86
583.536	8.55
583.731	9.16
583.925	9.32
584.12	9.31
584.314	9.31
584.509	9.26
584.703	9.3
584.897	9.15
585.092	9.12
585.286	9.57
585.48	9.43
585.674	9.52
585.869	9.57
586.063	9.51
586.257	9.62
586.451	9.73
586.646	9.95
586.84	9.48
587.034	9.19
587.228	9.83
587.422	9.9
587.616	9.81
587.81	9.85
588.004	10.25
588.198	9.73
588.392	9.8
588.586	10.55
588.78	10.57
588.974	10.38
589.168	10.75
589.362	10.87
589.556	10.4
589.75	11.1
589.944	10.75
590.137	10.91
590.331	10.95
590.525	11.27
590.719	10.86
590.913	11.16
591.106	11.06
591.3	11.35
591.494	11.56
591.687	11.3
591.881	11.46
592.075	11.7
592.268	11.64
592.462	11.83
592.655	11.66
592.849	12.01
593.043	12.04
593.236	11.93
593.43	11.75
593.623	11.87
593.817	11.74
594.01	12.04
594.203	12.12
594.397	12.55
594.59	12.65
594.784	12.57
594.977	13.15
595.17	13.19
595.364	12.74
595.557	13.4
595.75	12.82
595.943	12.63
596.137	13.33
596.33	12.6
596.523	13.18
596.716	12.93
596.909	13.45
597.102	13.83
597.296	13.65
597.489	13.49
597.682	13.29
597.875	13.19
598.068	13.29
598.261	13.16
598.454	13.09
598.647	13.2
598.84	12.97
599.033	13.61
599.226	13.11
599.419	13.89
599.611	13.72
599.804	13.66
599.997	14.22
600.19	13.96
600.383	14.7
600.576	14.36
600.768	14.14
600.961	14.2
601.154	14.32
601.347	14.25
601.539	14.51
601.732	14.59
601.925	14.65
602.117	14.71
602.31	15.15
602.502	14.79
602.695	14.69
602.888	14.6
603.08	14.5
603.273	14.62
603.465	15.08
603.658	15.03
603.85	15.05
604.043	14.96
604.235	14.24
604.427	14.89
604.62	14.98
604.812	14.87
605.004	15.1
605.197	15.13
605.389	14.95
605.581	15.16
605.774	15.07
605.966	15.37
606.158	15.18
606.35	15.38
606.543	15.13
606.735	15.48
606.927	15.72
607.119	15.96
607.311	15.9
607.503	16.13
607.695	16.12
607.887	16.04
608.079	15.93
608.271	16.16
608.463	16.31
608.655	16.82
608.847	16.72
609.039	16.48
609.231	16.37
609.423	16.71
609.615	16.94
609.807	16.69
609.999	16.29
610.191	16.5
610.382	16.84
610.574	16.43
610.766	16.36
610.958	16.58
611.15	16.36
611.341	16.34
611.533	16.48
611.725	16.76
611.916	16.8
612.108	16.54
612.3	16.61
612.491	16.5
612.683	16.45
612.874	16.71
613.066	17.02
613.257	17.37
613.449	16.91
613.64	16.55
613.832	16.72
614.023	16.86
614.215	16.99
614.406	17.23
614.598	17.22
614.789	17.4
614.98	17.83
615.172	17.08
615.363	17.31
615.554	17.06
615.746	16.97
615.937	17.33
616.128	17.12
616.319	17.29
616.511	16.99
616.702	17.36
616.893	17.81
617.084	17.44
617.275	17.7
617.466	17.8
617.658	18.14
617.849	17.93
618.04	17.4
618.231	17.16
618.422	17.51
618.613	17.71
618.804	17.15
618.995	17.06
619.186	16.79
619.377	17.42
619.568	17.09
619.758	17.46
619.949	17.41
620.14	17.15
620.331	17.13
620.522	17.4
620.713	17.49
620.903	17.41
621.094	17.37
621.285	17.8
621.476	17.44
621.666	17.36
621.857	17.5
622.048	17.58
622.238	18.14
622.429	18.22
622.62	18.57
622.81	18.43
623.001	18.59
623.191	18.43
623.382	17.83
623.572	18
623.763	17.66
623.953	18.03
624.144	17.72
624.334	17.52
624.525	17.84
624.715	18.01
624.905	18.14
625.096	18.32
625.286	17.62
625.477	17.73
625.667	17.56
625.857	17.44
626.047	17.63
626.238	17.87
626.428	17.88
626.618	17.88
626.808	17.46
626.999	18.1
627.189	17.48
627.379	17.78
627.569	17.74
627.759	17.77
627.949	18.14
628.139	17.49
628.329	17.76
628.519	17.95
628.709	18.05
628.899	18.3
629.089	17.37
629.279	17.47
629.469	17.68
629.659	17.61
629.849	17.42
630.039	17.45
630.229	17.36
630.419	17.24
630.609	17.68
630.798	17.38
630.988	17.14
631.178	17.17
631.368	17.45
631.557	17.46
631.747	17.67
631.937	17.94
632.127	18
632.316	18.44
632.506	18.74
632.696	18.69
632.885	18.23
633.075	18.64
633.264	18.27
633.454	18.46
633.643	18.25
633.833	17.92
634.022	18.36
634.212	18.07
634.401	17.95
634.591	17.97
634.78	17.82
634.97	17.86
635.159	18.13
635.348	18.11
635.538	18.46
635.727	18.83
635.916	18.26
636.106	18.16
636.295	17.83
636.484	17.71
636.674	17.79
636.863	17.59
637.052	17.16
637.241	17.72
637.43	17.44
637.619	17.19
637.809	17.39
637.998	17.85
638.187	18.04
638.376	18.32
638.565	18.46
638.754	18.23
638.943	18.05
639.132	17.72
639.321	17.39
639.51	16.64
639.699	16.93
639.888	16.93
640.077	17.01
640.266	17.23
640.455	17.08
640.643	17.26
640.832	17.05
641.021	16.88
641.21	17.09
641.399	17.43
641.587	17.39
641.776	18.03
641.965	17.8
642.154	17.77
642.342	17.64
642.531	17.82
642.72	17.9
642.908	17.83
643.097	17.24
643.286	17.58
643.474	17.37
643.663	17.18
643.851	17.11
644.04	16.97
644.228	17.37
644.417	17.78
644.605	17.48
644.794	17.46
644.982	18.02
645.171	17.8
645.359	17.82
645.547	18.26
645.736	17.79
645.924	17.18
646.112	16.76
646.301	16.78
646.489	16.72
646.677	16.59
646.866	16.68
647.054	16.78
647.242	16.88
647.43	17.19
647.618	16.86
647.807	17.19
647.995	16.78
648.183	16.83
648.371	16.48
648.559	16.65
648.747	17.12
648.935	17.51
649.123	17.74
649.311	17.45
649.499	17.63
649.687	17.19
649.875	16.54
650.063	16.98
650.251	16.73
650.439	17.12
650.627	17.22
650.815	17.21
651.003	16.44
651.191	16.74
651.378	17.21
651.566	17.19
651.754	17.02
651.942	17.07
652.13	16.99
652.317	17.21
652.505	16.71
652.693	16.53
652.88	16.78
653.068	16.38
653.256	16.43
653.443	16.68
653.631	16.57
653.819	16.57
654.006	16.73
654.194	16.57
654.381	16.66
654.569	16.72
654.756	16.61
654.944	16.74
655.131	17.09
655.319	17.19
655.506	16.94
655.693	17.05
655.881	16.71
656.068	16.96
656.256	17.21
656.443	16.8
656.63	17.31
656.818	17.46
657.005	17.42
657.192	17.12
657.379	16.97
657.567	17.25
657.754	17.33
657.941	17.64
658.128	16.97
658.315	16.61
658.502	16.75
658.69	16.83
658.877	17.11
659.064	16.92
659.251	17.3
659.438	16.72
659.625	16.4
659.812	16.53
659.999	16.92
660.186	16.56
660.373	16.19
660.56	16.79
660.747	16.81
660.934	17.56
661.121	17.13
661.308	17.02
661.494	16.83
661.681	17.12
661.868	16.88
662.055	16.66
662.242	16.68
662.428	17.27
662.615	17.03
662.802	16.84
662.989	16.82
663.175	17.32
663.362	18.3
663.549	17.34
663.735	17.31
663.922	17.35
664.109	16.88
664.295	17.51
664.482	17.23
664.668	17.04
664.855	16.68
665.041	16.85
665.228	16.69
665.414	16.95
665.601	16.96
665.787	17.23
665.974	16.57
666.16	16.38
666.347	15.81
666.533	16.38
666.719	16.7
666.906	16.34
667.092	16.85
667.278	17.19
667.465	16.9
667.651	17.09
667.837	17.03
668.023	17.05
668.21	17.36
668.396	17.17
668.582	17.08
668.768	16.88
668.954	16.81
669.14	17
669.327	17.19
669.513	17.03
669.699	17.41
669.885	17.5
670.071	17.45
670.257	17.88
670.443	17.55
670.629	16.93
670.815	17.08
671.001	16.86
671.187	16.74
671.373	16.95
671.559	16.95
671.744	17.72
671.93	17.5
672.116	17.55
672.302	17.53
672.488	17.09
672.674	17.67
672.859	17.81
673.045	17.55
673.231	17.43
673.417	17.12
673.602	16.95
673.788	17.62
673.974	17.16
674.159	16.67
674.345	16.84
674.531	17.01
674.716	16.92
674.902	17.25
675.087	17.43
675.273	17.24
675.459	17.54
675.644	17.57
675.83	17.37
676.015	17.24
676.2	16.97
676.386	16.86
676.571	17.22
676.757	17.24
676.942	17.16
677.128	16.72
677.313	16.91
677.498	16.62
677.684	16.54
677.869	16.93
678.054	17.54
678.24	17.75
678.425	17.7
678.61	17.76
678.795	17.76
678.98	17.73
679.166	17.57
679.351	17.12
679.536	17.19
679.721	17.26
679.906	17.67
680.091	16.95
680.276	17.02
680.461	16.99
680.647	17.08
680.832	17.4
681.017	17.19
681.202	17.46
681.387	17.42
681.572	17.32
681.756	17.53
681.941	17.5
682.126	17.23
682.311	16.69
682.496	17.15
682.681	16.89
682.866	17.33
683.051	17.15
683.235	17.52
683.42	17.73
683.605	17.92
683.79	17.74
683.974	18.03
684.159	17.12
684.344	17.13
684.529	17.14
684.713	17.18
684.898	17.12
685.083	16.82
685.267	17.13
685.452	17.15
685.636	17.52
685.821	16.9
686.005	17.33
686.19	17.11
686.375	17.26
686.559	17.39
686.744	16.77
686.928	17.3
687.112	16.84
687.297	16.5
687.481	17.13
687.666	17.04
687.85	16.86
688.034	17.06
688.219	17.29
688.403	16.94
688.587	16.98
688.772	16.93
688.956	17.03
689.14	17.05
689.324	16.82
689.509	16.27
689.693	16.56
689.877	16.58
690.061	16.86
690.245	16.59
690.43	17.09
690.614	16.87
690.798	16.46
690.982	16.99
691.166	16.19
691.35	16.67
691.534	16.62
691.718	16.37
691.902	16.87
692.086	16.46
692.27	17.03
692.454	17.05
692.638	16.96
692.822	17.43
693.006	17.05
693.19	17.19
693.373	17.08
693.557	16.74
693.741	16.57
693.925	17.01
694.109	16.52
694.293	16.7
694.476	16.5
694.66	16.83
694.844	16.85
695.027	17.24
695.211	17.31
695.395	17.38
695.578	17.14
695.762	16.34
695.946	16.61
696.129	16.73
696.313	16.21
696.497	16.13
696.68	15.93
696.864	16.23
697.047	16.13
697.231	16.3
697.414	16.31
697.598	15.7
697.781	15.38
697.965	15.79
698.148	16.17
698.331	15.79
698.515	15.87
698.698	15.89
698.881	16.33
699.065	15.84
699.248	16.06
699.431	16.72
699.615	16.29
699.798	15.95
699.981	15.75
700.165	15.87
700.348	15.69
700.531	15.77
700.714	15.62
700.897	15.41
701.08	15.5
701.264	15.77
701.447	15.49
701.63	16.16
701.813	16.43
701.996	16.26
702.179	16.24
702.362	16.15
702.545	16.11
702.728	16.09
702.911	16.2
703.094	16.53
703.277	16.43
703.46	16.62
703.643	16.27
703.826	16.14
704.009	15.92
704.191	15.73
704.374	15.79
704.557	15.53
704.74	16.2
704.923	15.65
705.106	15.57
705.288	15.27
705.471	15.89
705.654	15.71
705.837	15.85
706.019	15.79
706.202	16.55
706.385	15.86
706.567	15.7
706.75	16.09
706.932	15.37
707.115	15.62
707.298	14.85
707.48	14.84
707.663	15.06
707.845	14.8
708.028	14.96
708.21	15.26
708.393	15.26
708.575	15.74
708.758	15.64
708.94	15.8
709.123	16.31
709.305	16.11
709.487	15.63
709.67	15.94
709.852	15.89
710.034	15.52
710.217	15.14
710.399	15.33
710.581	15.36
710.764	15.44
710.946	15.45
711.128	15.16
711.31	15.42
711.492	15.59
711.675	15.55
711.857	15.51
712.039	15.49
712.221	15.47
712.403	15.55
712.585	15.39
712.767	15.31
712.949	15.25
713.131	15.39
713.314	15.86
713.496	15.71
713.678	15.04
713.86	15.46
714.041	15.55
714.223	15.46
714.405	15.47
714.587	15.77
714.769	14.66
714.951	15.43
715.133	15.09
715.315	15.64
715.497	15.64
715.678	15.43
715.86	15.1
716.042	15.57
716.224	15.17
716.406	14.91
716.587	15.32
716.769	14.86
716.951	14.97
717.132	15.5
717.314	14.83
717.496	15.15
717.677	15.18
717.859	15.43
718.041	15.02
718.222	14.34
718.404	14.6
718.585	14.4
718.767	14.72
718.948	14.97
719.13	14.73
719.311	15.02
719.493	14.63
719.674	14.96
719.856	14.44
720.037	14.81
720.219	14.56
720.4	14.94
720.581	14.49
720.763	15.02
720.944	14.79
721.125	14.77
721.307	14.64
721.488	14.66
721.669	14.28
721.85	14.19
722.032	14.32
722.213	14.43
722.394	14.34
722.575	14.63
722.756	13.8
722.938	14.1
723.119	14.33
723.3	14.2
723.481	14.05
723.662	13.47
723.843	13.39
724.024	13.95
724.205	13.57
724.386	13.62
724.567	13.88
724.748	14.17
724.929	14.67
725.11	14.74
725.291	14.85
725.472	14.6
725.653	15.08
725.834	14.43
726.015	14.6
726.196	14.86
726.377	14.69
726.557	14.31
726.738	15.15
726.919	14.29
727.1	14.51
727.281	13.77
727.461	14.12
727.642	13.89
727.823	14.23
728.004	13.84
728.184	14.2
728.365	14.28
728.546	13.68
728.726	14.04
728.907	13.63
729.087	13.74
729.268	13.73
729.449	13.7
729.629	14.19
729.81	13.77
729.99	13.04
730.171	12.99
730.351	13.42
730.532	12.93
730.712	13.63
730.893	13.09
731.073	13.32
731.253	12.73
731.434	13.05
731.614	13.46
731.795	12.97
731.975	13.54
732.155	13.55
732.336	14.01
732.516	13.38
732.696	13.61
732.876	13.43
733.057	13.77
733.237	13.22
733.417	13.31
733.597	12.95
733.778	13.87
733.958	13.31
734.138	13.18
734.318	13.42
734.498	12.97
734.678	12.71
734.858	13.1
735.038	13.75
735.218	13.43
735.398	13.63
735.579	13.61
735.759	13.59
735.939	13.19
736.119	13.39
736.298	13.7
736.478	13.64
736.658	12.97
736.838	13.45
737.018	13.44
737.198	13.43
737.378	13.25
737.558	13.23
737.738	13.36
737.917	13.45
738.097	13.35
738.277	13.32
738.457	13.73
738.637	12.75
738.816	13.13
738.996	13.37
739.176	12.26
739.355	13.11
739.535	13.12
739.715	13.03
739.894	12.8
740.074	12.64
740.254	12.44
740.433	12.7
740.613	12.44
740.792	12.94
740.972	12.5
741.151	12.34
741.331	12.4
741.51	12.69
741.69	13.05
741.869	13.12
742.049	12.61
742.228	13.05
742.408	12.75
742.587	12.95
742.766	13.05
742.946	12.68
743.125	12.97
743.305	13.09
743.484	12.41
743.663	13.13
743.842	12.7
744.022	13.16
744.201	12.25
744.38	12.37
744.56	12.44
744.739	12.55
744.918	12.37
745.097	12.66
745.276	12.68
745.455	12.22
745.635	13.18
745.814	12.68
745.993	12.73
746.172	13.09
746.351	13.25
746.53	13.48
746.709	12.68
746.888	12.68
747.067	12.6
747.246	12.83
747.425	12.87
747.604	12.33
747.783	13.16
747.962	12.68
748.141	13.61
748.32	13.02
748.499	13.26
748.677	12.43
748.856	12.17
749.035	12.67
749.214	13.27
749.393	12.81
749.572	12.32
749.75	12.9
749.929	12.3
750.108	12.37
750.287	12.45
750.465	12.41
750.644	12.28
750.823	12.05
751.001	12.22
751.18	12.47
751.359	12
751.537	11.76
751.716	12.03
751.894	11.68
752.073	11.51
752.251	12.13
752.43	11.5
752.609	12.55
752.787	11.68
752.966	11.63
753.144	12.08
753.322	10.47
753.501	11.32
753.679	11.28
753.858	11.46
754.036	11.1
754.215	11.05
754.393	10.52
754.571	10.99
754.75	10.74
754.928	10.97
755.106	11.25
755.284	11.72
755.463	11.6
755.641	11.29
755.819	11.92
755.997	11.46
756.176	11.04
756.354	11.68
756.532	11.64
756.71	11.42
756.888	11.32
757.066	11.65
757.245	11.42
757.423	11.11
757.601	11.32
757.779	10.71
757.957	11.42
758.135	11.07
758.313	11.15
758.491	10.95
758.669	11.07
758.847	10.74
759.025	11.36
759.203	11.73
759.381	11.49
759.559	11.51
759.737	11.14
759.915	11.42
760.092	11.37
760.27	11.63
760.448	11.45
760.626	11.32
760.804	11.63
760.981	11.08
761.159	11.11
761.337	11.75
761.515	11.31
761.692	11.14
761.87	11.07
762.048	10.71
762.226	10.83
762.403	10.57
762.581	11.16
762.759	11.14
762.936	11.41
763.114	11.5
763.291	11.29
763.469	11.69
763.647	11.52
763.824	10.79
764.002	11.28
764.179	11.67
764.357	11.23
764.534	10.62
764.712	10.68
764.889	10.84
765.066	10.81
765.244	9.95
765.421	10.42
765.599	10.55
765.776	11.34
765.953	10.39
766.131	11.91
766.308	10.81
766.485	11.34
766.663	11.15
766.84	11.12
767.017	10.45
767.194	10.71
767.372	10.45
767.549	10.72
767.726	10.9
767.903	10.92
768.081	9.96
768.258	10.18
768.435	10.6
768.612	10.51
768.789	10.8
768.966	10.7
769.143	10.81
769.32	11.35
769.497	10.58
769.674	10.56
769.851	10.6
770.028	10.67
770.205	10.97
770.382	10.09
770.559	10.35
770.736	11.1
770.913	11.32
771.09	11.33
771.267	10.93
771.444	10.57
771.621	9.75
771.798	9.35
771.975	10.39
772.151	10.94
772.328	10.73
772.505	10.38
772.682	10.29
772.859	11.8
773.035	9.27
773.212	9.8
773.389	10.23
773.565	11.06
773.742	10.08
773.919	10.27
774.096	10.6
774.272	10.33
774.449	9.66
774.625	10.01
774.802	9.67
774.979	11.05
775.155	11.21
775.332	11.33
775.508	10.88
775.685	9.8
775.861	10.46
776.038	10.24
776.214	9.81
776.391	9.99
776.567	10.16
776.744	10.92
776.92	10.23
777.096	9.52
777.273	10.76
777.449	10.99
777.626	9.91
777.802	10.86
777.978	10.83
778.155	9.72
778.331	9.99
778.507	10.29
778.683	8.91
778.86	9.73
779.036	10.96
779.212	10.45
779.388	9.8
779.565	8.71
779.741	11.42
779.917	10.12
780.093	9.69
780.269	9.47
780.445	10.04
780.621	10.51
780.797	10.57
780.974	9.53
781.15	10.08
781.326	10.43
781.502	9.28
781.678	10.6
781.854	9.14
782.03	9.18
782.206	10.55
782.382	8.94
782.558	11.24
782.733	9.54
782.909	10.97
783.085	10.72
783.261	9.59
783.437	9.54
783.613	8.14
783.789	8.72
783.965	9.68
784.14	8.91
784.316	8.7
784.492	8.67
784.668	8.6
784.843	9.29
785.019	10.82
785.195	7.71
785.371	10.1
785.546	10.16
785.722	10.62
785.898	8.6
786.073	10.28
786.249	8.89
786.424	8.56
786.6	9.22
786.776	9.03
786.951	8.87
787.127	10.87
787.302	8.72
787.478	8.78
787.653	9.37
787.829	8.49
788.004	8.55
788.18	9.64
788.355	9.72
788.531	8.25
788.706	10.3
788.881	8.87
789.057	11.51
789.232	8.12
789.408	9.72
789.583	10.2
789.758	9.57
789.934	7.57
790.109	9.51
790.284	9.93
790.459	9.06
790.635	9.85
790.81	9.42
790.985	9.38
791.16	9.36
791.336	8.69
791.511	9.73
791.686	8.39
791.861	10.44
792.036	12.03
792.211	7.6
792.387	9.9
792.562	9.25
792.737	8.13
792.912	8.26
793.087	8.89
793.262	8.01
793.437	8.84
793.612	9.22
793.787	8.72
793.962	9.33
794.137	10.21
794.312	8.36
794.487	10.78
794.662	10.09
794.837	9.49
795.011	8.11
795.186	10.99
795.361	7.4
795.536	9.54
795.711	6.97
795.886	9.15
796.06	8.87
796.235	9.73
796.41	6.45
796.585	8.65
796.76	8.75
796.934	7.74
797.109	12.37
797.284	9.03
797.458	9.37
797.633	9.82
797.808	8.16
797.982	8.1
798.157	8.19
798.332	9.77
798.506	8.81
798.681	7.98
798.855	8.69
799.03	8.93
799.204	10.94
799.379	5.99
799.553	8.54
799.728	7.85
799.902	7.68
800.077	9.83
800.251	9.72
800.426	8.83
800.6	8.83
800.775	8.59
800.949	6.47
801.123	9.01
801.298	8.61
801.472	10.35
801.647	8.32
801.821	8.72
801.995	8.29
802.169	8.68
802.344	9.78
802.518	11
802.692	5.05
802.867	8.96
803.041	10.43
803.215	10.14
803.389	9.69
803.563	5.95
803.737	8.05
803.912	9.96
804.086	10.3
804.26	10.79
804.434	9.47
804.608	8.24
804.782	9.07
804.956	10.16
805.13	7.57
805.304	7.46
805.478	9.04
805.652	10.56
805.826	13.89
806	9.47
806.174	10.62
806.348	8.53
806.522	8.87
806.696	7.27
806.87	9.24
807.044	7.82
807.218	11.72
807.392	11.4
807.566	7.24
807.739	8.3
807.913	8.24
808.087	7.01
808.261	6.31
808.435	11.67
808.608	3.28
808.782	8.27
808.956	6.26
809.13	6.56
809.303	9.74
809.477	7.25
809.651	11.6
809.824	8.59
809.998	9.36
810.172	11.08
810.345	9.72
810.519	5.53
810.692	11.46
810.866	11.18
811.04	7.19
811.213	10.2
811.387	8.69
811.56	7.71
811.734	9.93
811.907	7.81
812.081	6.97
812.254	8.26
812.428	8.57
812.601	8.8
812.774	9.14
812.948	8.64
813.121	11.24
813.295	12.41
813.468	6.77
813.641	8.51
813.815	10.28
813.988	7.75
814.161	5.89
814.335	12.18
814.508	4.82
814.681	7.13
814.854	8.13
815.028	9.2
815.201	9.93
815.374	6.85
815.547	7.02
815.72	8.97
815.894	10.8
816.067	8.46
816.24	9.32
816.413	9.55
816.586	8.66
816.759	9.44
816.932	8.08
817.105	9.25
817.278	9.81
817.452	8
817.625	8.88
817.798	9.66
817.971	10.19
818.144	10.37
818.317	13.42
818.49	5.82
818.662	3.87
818.835	9.43
819.008	10.73
819.181	10.08
819.354	10.87
819.527	9.42
819.7	5.83
819.873	11.15
820.046	9.05
820.218	13.29
820.391	10.78
820.564	8.43
820.737	6.05
820.909	10.48
821.082	5.45
821.255	9.49
821.428	11.3
821.6	9.93
821.773	9.3
821.946	7.66
822.118	10.08
822.291	9.4
822.464	5.46
822.636	8.15
822.809	8.1
822.982	12.6
823.154	9.61
823.327	9.63
823.499	7.07
823.672	10.99
823.844	8.74
824.017	10.45
824.189	11.15
824.362	10.5
824.534	12.22
824.707	6.33
824.879	7.26
825.052	7.92
825.224	10.02
825.396	6.97
825.569	12.06
825.741	7.64
825.914	8.12
826.086	8.39
826.258	8.88
826.431	11.25
826.603	6.83
826.775	11.08
826.947	5.25
827.12	11.58
827.292	12.85
827.464	5.98
827.636	5.96
827.809	11.57
827.981	7.58
828.153	7.74
828.325	7.05
828.497	11.81
828.669	7.22
828.842	5.14
829.014	8.02
829.186	9.01
829.358	9.57
829.53	9.11
829.702	8.72
829.874	7.88
830.046	10.12
830.218	11.6
830.39	11.05
830.562	12.64
830.734	9.77
830.906	9.67
831.078	9.77
831.25	7.98
831.422	3.97
831.594	9.52
831.766	11.76
831.937	8.29
832.109	13.62
832.281	9.27
832.453	8.25
832.625	8.53
832.797	10.55
832.968	8.39
833.14	8.98
833.312	10.01
833.484	6.04
833.655	9.78
833.827	9.1
833.999	6.38
834.171	10.14
834.342	10.04
834.514	9.93
834.686	9.93
834.857	7
835.029	6.34
835.2	11.26
835.372	8.53
835.544	8.76
835.715	6.14
835.887	8.8
836.058	6.99
836.23	10.93
836.401	10.54
836.573	9.38
836.744	6.92
836.916	9.67
837.087	4.11
837.259	10.07
837.43	8.25
837.602	11.98
837.773	9.54
837.945	6.23
838.116	5.13
838.287	4.59
838.459	7.2
838.63	5.78
838.801	8.06
838.973	4.67
839.144	8.05
839.315	13.17
839.487	10.95
839.658	10.1
839.829	13.52
840	8.98
840.172	7.31
840.343	10.18
840.514	8.97
840.685	11.15
840.856	6.22
841.027	10.09
841.199	12.53
841.37	5.65
841.541	8.45
841.712	9.81
841.883	10.35
842.054	10.91
842.225	12.69
842.396	9.92
842.567	4.81
842.738	10.79
842.909	11.08
843.08	11.7
843.251	6.97
843.422	5.26
843.593	8.49
843.764	8.07
843.935	8.72
844.106	8.31
844.277	13.78
844.448	10.67
844.619	7.82
844.79	11.3
844.96	12.44
845.131	11.84
845.302	7.53
845.473	7.95
845.644	5.24
845.814	6.99
845.985	8.09
846.156	8.49
846.327	4.07
846.497	4.34
846.668	10.35
846.839	7.01
847.01	11.78
847.18	9.5
847.351	13.46
847.522	12.17
847.692	14.24
847.863	7.46
848.033	8.93
848.204	12.2
848.375	5.44
848.545	14.66
848.716	14.21
848.886	14.99
849.057	14.02
849.227	5.42
849.398	5.53
849.568	9.91
849.739	8.42
849.909	10.81
850.08	9.68
850.25	8.63
850.421	10.09
850.591	7.36
850.761	5.21
850.932	10.35
851.102	7.95
851.272	11.76
851.443	8.62
851.613	8.16
851.783	7.6
851.954	6.3
852.124	5.99
852.294	4.96
852.465	5.3
852.635	6.96
852.805	5.25
852.975	9.28
853.145	5.09
853.316	16.23
853.486	9.26
853.656	11.56
853.826	7.14
853.996	7.7
854.166	8.31
854.337	14.16
854.507	6.62
854.677	9.69
854.847	4.84
855.017	7.63
855.187	13.36
855.357	6.76
855.527	8.45
855.697	9.12
855.867	11.79
856.037	10.46
856.207	12.08
856.377	11.68
856.547	10.35
856.717	10.29
856.887	15.44
857.057	13.87
857.227	12.01
857.397	16.26
857.566	10.64
857.736	2.38
857.906	6.74
858.076	10.93
858.246	9.28
858.416	4.84
858.585	3.65
858.755	9.44
858.925	7.34
859.095	12.38
859.264	14.59
859.434	6.76
859.604	10.69
859.774	9.77
859.943	9.91
860.113	4.2
860.283	5.12
860.452	4.73
860.622	11.88
860.791	8.39
860.961	6.08
861.131	13.03
861.3	11.08
861.47	9.07
861.639	7.96
861.809	14.23
861.978	8.44
862.148	2.18
862.318	9.88
862.487	8.1
862.657	13.17
862.826	-0.38
862.995	8.88
863.165	13.47
863.334	4.91
863.504	6.97
863.673	7.38
863.843	6.05
864.012	15.33
864.181	11.99
864.351	10.23
864.52	2
864.689	2.13
864.859	5.85
865.028	12.84
865.197	5.42
865.366	5.54
865.536	16.46
865.705	13.31
865.874	3.99
866.043	7.17
866.213	12.18
866.382	10.17
866.551	5.71
866.72	19.06
866.889	8.79
867.059	3
867.228	15.9
867.397	7.35
867.566	2.09
867.735	10.51
867.904	12.04
868.073	7.91
868.242	8.36
868.411	8.92
868.58	15.08
868.749	11.89
868.918	5.69
869.087	8.46
869.256	8.35
869.425	5.53
869.594	5.99
869.763	7.15
869.932	15.85
870.101	-2.8
870.27	1.59
870.439	-0.64
870.608	1.26
870.777	6.02
870.945	7.6
871.114	10.13
871.283	3.42
871.452	11.05
871.621	18.58
871.789	13.16
871.958	3.12
872.127	-0.28
872.296	3.81
872.464	7.04
872.633	24.39
872.802	11.39
872.971	16.09
873.139	20.59
873.308	1.61
873.477	5.47
873.645	14.9
873.814	10.33
873.983	-10.47
874.151	16.31
874.32	3.53
874.488	14.17
874.657	12.17
874.826	19.04
874.994	14.34
875.163	8.16
875.331	8.9
875.5	10.75
875.668	15.19
875.837	5.43
876.005	10.43
876.174	12.72
876.342	5.39
876.51	10.15
876.679	4
876.847	12.94
877.016	-0.85
877.184	-2.59
877.352	0.52
877.521	18.4
877.689	7.51
877.857	1.86
878.026	6.62
878.194	14.99
878.362	6.96
878.531	3.38
878.699	6.62
878.867	6.6
879.036	4.29
879.204	11.03
879.372	18.35
879.54	3.45
879.708	23.91
879.877	13.66
880.045	15.9
880.213	15.44
880.381	21.01
880.549	22.7
880.717	2.32
880.885	5.78
881.054	-1.52
881.222	14.16
881.39	5.48
881.558	22.12
881.726	-6.82
881.894	25.74
882.062	6.65
882.23	15.57
882.398	18
882.566	-0.35
882.734	-1.21
882.902	12.48
883.07	4.29
883.238	11.99
883.406	-2.52
883.574	1.99
883.741	10.23
883.909	13.21
884.077	16.16
884.245	12.64
884.413	-0.05
884.581	-0.76
884.749	5.88
884.916	14.6
885.084	3.7
885.252	8.87
885.42	-9.01
885.587	17.76
885.755	5.11
885.923	7.09
886.091	10.67
886.258	13.14
886.426	8.25
886.594	2.13
886.761	3.33
886.929	7.81
887.097	13.57
887.264	9.6
887.432	16.99
887.6	14.22
887.767	9.76
887.935	5.75
888.102	16.85
888.27	5.94
888.438	17.25
888.605	6.65
888.773	17.35
888.94	15.19
889.108	-7.57
889.275	7.01
889.443	9.23
889.61	16.92
889.778	9.83
889.945	4.73
890.112	-0.05
890.28	9.48
890.447	27.62
890.615	7.43
890.782	12.61
890.949	-1.51
891.117	12.71
891.284	3.48
891.452	-13.35
891.619	7.13
891.786	6.15
891.953	-0.37
892.121	12.71
892.288	9.46
892.455	14.93
892.623	5.41
892.79	2.58
892.957	15.97
893.124	11.84
893.291	10.36
893.459	6.9
893.626	8.55
893.793	3.53
893.96	18.02
894.127	11.5
894.294	27.52
894.461	1.87
894.629	16.28
894.796	8.57
894.963	16.87
895.13	16.55
895.297	0.67
895.464	18.5
895.631	14.32
895.798	15.25
895.965	-6.03
896.132	11
896.299	11.42
896.466	30.71
896.633	15.45
896.8	2.98
896.967	17.36
897.134	7
897.301	-0.07
897.467	25.01
897.634	19.17
897.801	7.84
897.968	1.96
898.135	4.99
898.302	-4.84
898.469	11.6
898.635	7.29
898.802	11
898.969	23.92
899.136	26.23
899.303	10.65
