Data from y0_Transmission_15-23-17-986.txt Node
Date: Thu May 02 15:23:17 EDT 2019
User: dh1006
Spectrometer: USB4E01358
Autoset integration time: false
Trigger mode: 4
Integration Time (sec): 8.000000E-2
Scans to average: 1
Electric dark correction enabled: true
Nonlinearity correction enabled: false
Boxcar width: 0
Stray light correction enabled: false
XAxis mode: Wavelengths
Stop averaging: false
Number of Pixels in Spectrum: 3648
>>>>>Begin Spectral Data<<<<<
176.727	90
176.966	90
177.205	90
177.444	218.54
177.683	8.09
177.922	28.98
178.161	109.26
178.4	90
178.638	2300
178.877	1.45
179.116	55.79
179.355	-4.55
179.593	103.98
179.832	67.54
180.071	110.53
180.309	422.22
180.548	61.62
180.786	-89.41
181.025	9775
181.263	54.14
181.502	-86.97
181.74	52.18
181.979	55.95
182.217	-217.34
182.456	119.77
182.694	12.66
182.932	34.29
183.17	-30.55
183.409	-335.37
183.647	48.09
183.885	480
184.123	139.78
184.361	148.92
184.6	13.45
184.838	1577.78
185.076	25
185.314	-87.58
185.552	41.2
185.79	-93.78
186.028	31.12
186.266	53.26
186.503	4.09
186.741	-15.72
186.979	81.2
187.217	7175
187.455	22.27
187.693	106.25
187.93	22.05
188.168	79.17
188.406	76.91
188.643	-15.99
188.881	-337.68
189.119	-7.91
189.356	-179.63
189.594	123.09
189.831	226.45
190.069	-13.72
190.306	79.33
190.543	-9.51
190.781	150.6
191.018	12.85
191.256	-108.2
191.493	-93.79
191.73	-131.73
191.967	-392.86
192.205	-73.91
192.442	-73.22
192.679	-5825
192.916	-226.88
193.153	97.49
193.39	-253.57
193.628	393.33
193.865	-34.89
194.102	143.65
194.339	62.05
194.576	0.36
194.813	57.8
195.049	-7.5
195.286	51.55
195.523	-129.08
195.76	-79.53
195.997	-69.35
196.234	-59.78
196.47	24.15
196.707	-261.19
196.944	6.63
197.18	-7.42
197.417	-30.86
197.654	-5.83
197.89	19.26
198.127	61.43
198.363	641.38
198.6	-8.59
198.836	-109.33
199.073	-4.93
199.309	68.59
199.546	64.53
199.782	-79.25
200.018	-863.33
200.255	105.4
200.491	-662.79
200.727	53.51
200.963	13.61
201.199	47.01
201.436	160.11
201.672	-25.19
201.908	66.02
202.144	64
202.38	-587.37
202.616	48.6
202.852	176.24
203.088	-12.01
203.324	124.21
203.56	-1060.98
203.796	8.91
204.032	49.85
204.268	593.75
204.503	151.95
204.739	98.27
204.975	-9.34
205.211	196.89
205.446	88.66
205.682	9.35
205.918	-420.93
206.153	-7.54
206.389	93.61
206.625	78.48
206.86	29.43
207.096	220
207.331	4.39
207.567	-160.22
207.802	-25.85
208.037	33.48
208.273	22.25
208.508	37.04
208.744	-22.51
208.979	22.09
209.214	-4525
209.449	-74.73
209.685	-146.68
209.92	-187.28
210.155	76.89
210.39	33.24
210.625	744.64
210.86	-123.9
211.095	407.35
211.33	38.27
211.565	-492.59
211.8	357.47
212.035	344.63
212.27	76.91
212.505	-60.28
212.74	138.83
212.975	409.09
213.21	93.3
213.444	-11.55
213.679	35.2
213.914	-76.72
214.149	-15.99
214.383	18.5
214.618	-2.08
214.853	-35.59
215.087	-293.01
215.322	83.28
215.556	-234.67
215.791	32.56
216.025	33.06
216.26	-137.99
216.494	420.27
216.729	157.41
216.963	0.28
217.197	37.12
217.432	32.27
217.666	-474.39
217.9	12.83
218.135	70.88
218.369	4755.56
218.603	287.72
218.837	95.65
219.071	60.55
219.306	4.8
219.54	54.34
219.774	52.57
220.008	89.22
220.242	-719.01
220.476	-529.41
220.71	-26.44
220.944	129.33
221.178	-141.46
221.411	22.76
221.645	65.09
221.879	95.82
222.113	-863.33
222.347	14.93
222.58	-29.87
222.814	-2.99
223.048	-372.22
223.281	-85.04
223.515	528.32
223.749	-23.75
223.982	-54.65
224.216	883
224.449	-154.61
224.683	-44.47
224.916	-131.48
225.15	79.58
225.383	389
225.617	22.93
225.85	28.05
226.083	242.61
226.317	26.18
226.55	33.17
226.783	494.44
227.016	99.36
227.25	-2.86
227.483	-416.07
227.716	48.53
227.949	-26.01
228.182	-40.82
228.415	33.23
228.648	-170
228.881	35.05
229.114	-47.32
229.347	4.3
229.58	610
229.813	31.29
230.046	-4.55
230.279	-22.84
230.512	28.55
230.745	13.49
230.977	81.42
231.21	56.97
231.443	-29.79
231.675	-5.04
231.908	1458.82
232.141	74.68
232.373	-628.42
232.606	-414.97
232.839	15.86
233.071	-45.78
233.304	-14.39
233.536	-53.68
233.769	155.3
234.001	15.67
234.233	169.44
234.466	75.2
234.698	343.63
234.93	-241.72
235.163	-58.32
235.395	-390.7
235.627	-14.39
235.86	20.29
236.092	53.05
236.324	-21.71
236.556	16.88
236.788	15.86
237.02	110.14
237.252	-51.66
237.484	66.31
237.716	90
237.948	171.95
238.18	366.12
238.412	144.22
238.644	436.33
238.876	-121.25
239.108	-49.05
239.34	190.16
239.571	11.7
239.803	-64.92
240.035	303.73
240.267	117.43
240.498	1577.78
240.73	1149.18
240.962	131.16
241.193	127.08
241.425	65.05
241.656	317.27
241.888	-13.86
242.119	21.89
242.351	-1267.44
242.582	-79.25
242.814	-160.33
243.045	40.8
243.277	-183.58
243.508	104.05
243.739	45.66
243.971	16.72
244.202	33.29
244.433	-172.25
244.664	24.08
244.896	49.68
245.127	-3.09
245.358	71.43
245.589	23.12
245.82	183.29
246.051	67.26
246.282	47.25
246.513	57.87
246.744	27.9
246.975	-506.1
247.206	68.98
247.437	-91.27
247.668	-492.59
247.899	102.06
248.129	90
248.36	36.26
248.591	70.18
248.822	44.35
249.052	88.06
249.283	17.58
249.514	27.58
249.744	-13.2
249.975	29.11
250.206	65.09
250.436	63.53
250.667	307.91
250.897	2.89
251.128	-19.26
251.358	-352.7
251.589	144.17
251.819	-12.14
252.049	164.62
252.28	66.36
252.51	-37.89
252.74	-81.19
252.971	-4525
253.201	23.1
253.431	-61.34
253.661	-24.06
253.891	-48.13
254.121	-26.24
254.352	116
254.582	-40
254.812	-113.55
255.042	-58.29
255.272	-37.27
255.502	17.93
255.732	-588.89
255.962	1063.93
256.192	4.44
256.421	-68.32
256.651	29.37
256.881	81.33
257.111	45.65
257.341	-32.79
257.57	70.07
257.8	129.36
258.03	39.91
258.259	-28.79
258.489	38.84
258.719	-43.05
258.948	-27.79
259.178	48.27
259.407	252.21
259.637	-43.1
259.866	-7.5
260.096	-25.63
260.325	135.84
260.555	-37.82
260.784	52.29
261.013	-1042.86
261.243	-43.39
261.472	227.03
261.701	133.33
261.931	-137.5
262.16	70.35
262.389	-45.94
262.618	10.23
262.847	36.75
263.076	44.28
263.305	3.67
263.535	-54.72
263.764	-18.56
263.993	41.36
264.222	63.46
264.451	-98.11
264.679	51.24
264.908	-11.6
265.137	-5.64
265.366	89.17
265.595	42.11
265.824	-17.74
266.053	-14.59
266.281	-435.26
266.51	-95.43
266.739	-3.3
266.967	-19.77
267.196	-5825
267.425	-65.74
267.653	-39.5
267.882	32.65
268.11	133.33
268.339	55.21
268.567	-152.83
268.796	-163.45
269.024	396.43
269.253	-47.51
269.481	31.21
269.709	45.09
269.938	34.5
270.166	29.76
270.394	79.33
270.623	28.55
270.851	-18.71
271.079	87.67
271.307	55.98
271.535	61.74
271.764	-63.02
271.992	188.65
272.22	3.23
272.448	-182.16
272.676	49.71
272.904	-22.07
273.132	55.12
273.36	-10.19
273.588	29.49
273.816	28.55
274.043	-107.85
274.271	69.55
274.499	23.56
274.727	181.48
274.955	-25.35
275.182	4.8
275.41	-41.4
275.638	9.75
275.866	972.92
276.093	-7.31
276.321	49.53
276.548	1.95
276.776	-42.27
277.003	73.42
277.231	1482.86
277.458	-8.28
277.686	49.37
277.913	-96.88
278.141	62.75
278.368	0.18
278.595	-23.29
278.823	-363.41
279.05	19.13
279.277	-47.73
279.505	-98.28
279.732	-305.18
279.959	1222.86
280.186	64.13
280.413	-1.53
280.641	68.21
280.868	41.97
281.095	-130.67
281.322	-1470
281.549	2.81
281.776	0.18
282.003	31.76
282.23	-143.1
282.457	170.87
282.683	62.51
282.91	-153.75
283.137	71.95
283.364	822.73
283.591	-179.83
283.818	6525
284.044	-572.09
284.271	77.2
284.498	-29.7
284.724	45.17
284.951	8.56
285.178	22.74
285.404	81.16
285.631	-6.35
285.857	-26.91
286.084	98.58
286.31	-84.91
286.537	-56.81
286.763	25.75
286.99	6.37
287.216	6633.33
287.442	-344.22
287.669	-27.68
287.895	11.84
288.121	588.49
288.347	197.06
288.574	10.79
288.8	-16.31
289.026	118.56
289.252	43.23
289.478	-28.36
289.704	24.25
289.931	9.45
290.157	41.34
290.383	-16.49
290.609	65.55
290.835	0.16
291.06	-19.54
291.286	-98.69
291.512	-194.8
291.738	281.11
291.964	34.87
292.19	55.04
292.416	-111.29
292.641	-54.05
292.867	-44.47
293.093	-40
293.319	53.42
293.544	133.33
293.77	-62.37
293.995	17.51
294.221	-27.62
294.447	43.76
294.672	-119.75
294.898	46.48
295.123	-3.05
295.349	-20.25
295.574	143.9
295.799	18.24
296.025	23.27
296.25	-27.33
296.476	285
296.701	20.02
296.926	-99.09
297.151	-250.76
297.377	777.14
297.602	-127.22
297.827	57.9
298.052	33.12
298.277	115.86
298.502	10.18
298.727	140.16
298.953	39.21
299.178	72.56
299.403	26.63
299.628	4.39
299.852	-147.06
300.077	-4123.53
300.302	-59.35
300.527	-118.53
300.752	-167.8
300.977	675
301.202	-470.49
301.426	-23.62
301.651	9.52
301.876	52.08
302.101	-165.34
302.325	1.67
302.55	-84.12
302.775	-6.79
302.999	33.91
303.224	18.23
303.448	-29.6
303.673	-516.67
303.897	20.03
304.122	29.69
304.346	-11.54
304.571	-53.82
304.795	-43.54
305.019	-25.75
305.244	31.14
305.468	666.22
305.692	117.58
305.917	-138.84
306.141	18.65
306.365	829.51
306.589	-123.57
306.813	-27.48
307.038	-2.86
307.262	-128.38
307.486	105.48
307.71	-5500
307.934	34.87
308.158	-142.2
308.382	-52.24
308.606	-149.9
308.83	-48.31
309.054	-144
309.278	58.12
309.502	49.87
309.725	241.04
309.949	21.08
310.173	29.98
310.397	-1.39
310.62	0.75
310.844	-74.73
311.068	-113.13
311.292	106.36
311.515	3
311.739	675
311.962	-36.34
312.186	18.49
312.41	38.36
312.633	-54.87
312.857	56.77
313.08	-35.19
313.303	33.26
313.527	-9.98
313.75	103.3
313.974	-106.33
314.197	-88.81
314.42	105.31
314.644	15.86
314.867	-5.74
315.09	-28.52
315.313	32.27
315.536	14.11
315.76	-107.24
315.983	-89.19
316.206	16.73
316.429	-15.63
316.652	-63.11
316.875	30.83
317.098	77.16
317.321	-38.09
317.544	130.62
317.767	18.49
317.99	-44.8
318.213	0.13
318.436	-65.51
318.658	-53.66
318.881	-159.53
319.104	18.81
319.327	22.02
319.55	155.78
319.772	44.67
319.995	-906.67
320.218	8.64
320.44	277.78
320.663	6.85
320.885	-72.34
321.108	23.44
321.331	-32.88
321.553	-197.15
321.776	12050
321.998	8.13
322.22	-96.08
322.443	29.92
322.665	-28.44
322.888	55.74
323.11	87.92
323.332	-36.35
323.555	101.47
323.777	-56.73
323.999	5.56
324.221	88.66
324.443	-62.41
324.666	-1.67
324.888	40.25
325.11	-192.56
325.332	-32.16
325.554	-195.75
325.776	33.28
325.998	879.07
326.22	76.81
326.442	-57.63
326.664	39.36
326.886	-66.98
327.108	-40
327.33	64
327.551	7.57
327.773	-17.71
327.995	43.95
328.217	12.57
328.439	-35.38
328.66	49.86
328.882	-117.36
329.104	-1530.36
329.325	48.88
329.547	32.44
329.769	-76.9
329.99	45.27
330.212	829.51
330.433	-96.65
330.655	-9.98
330.876	67.32
331.098	403.28
331.319	-26.17
331.54	-7.09
331.762	12.62
331.983	44.58
332.204	-66.82
332.426	36.47
332.647	218.54
332.868	16.38
333.089	-31.03
333.311	-9.21
333.532	30.4
333.753	1130
333.974	-53.38
334.195	-49.18
334.416	106.11
334.637	-111.29
334.858	-65.18
335.079	25
335.3	-52.93
335.521	-254.27
335.742	-544.93
335.963	-136.26
336.184	45.27
336.405	88.21
336.626	58.23
336.846	-20.25
337.067	-58.57
337.288	31.46
337.509	306.67
337.729	0.13
337.95	-632.56
338.171	-64.82
338.391	-96.08
338.612	64
338.833	1379.17
339.053	75.38
339.274	37.69
339.494	0.12
339.715	587.3
339.935	-106.65
340.156	49.79
340.376	8.8
340.596	54.27
340.817	2002.86
341.037	-86.08
341.257	-27.33
341.478	40.51
341.698	49.73
341.918	-389.38
342.138	34.92
342.359	-48.39
342.579	-50.52
342.799	-191.67
343.019	42.44
343.239	34.9
343.459	11.23
343.679	21.18
343.899	-75.31
344.119	60.16
344.339	-61.39
344.559	24.2
344.779	-8.48
344.999	-7.54
345.219	32.47
345.439	7.09
345.658	7355.56
345.878	593.75
346.098	-104.58
346.318	-35.88
346.537	2122.73
346.757	113.36
346.977	4.39
347.196	-28.53
347.416	11.62
347.636	9.41
347.855	-32.35
348.075	-39.02
348.294	-129.38
348.514	-179.63
348.733	14.36
348.953	-491.58
349.172	-196
349.392	-54.33
349.611	70.11
349.83	21.47
350.05	-76.41
350.269	-51.42
350.488	33.3
350.707	506.9
350.927	23.37
351.146	47.67
351.365	11.84
351.584	-167.05
351.803	-27.32
352.023	17.69
352.242	41.03
352.461	-265.33
352.68	0.4
352.899	47.94
353.118	-43.16
353.337	-53.79
353.556	-79.53
353.775	22.74
353.993	-144.92
354.212	41.95
354.431	-2.39
354.65	2.33
354.869	16.94
355.088	-1.48
355.306	-38.35
355.525	-32.5
355.744	-15.05
355.962	-104.3
356.181	156.76
356.4	-113.74
356.618	-27.32
356.837	46.45
357.055	49.86
357.274	87.2
357.492	-456.48
357.711	1.53
357.929	45.51
358.148	-317.33
358.366	72.51
358.585	-15.17
358.803	-12.54
359.021	585.84
359.24	-20.74
359.458	-79.42
359.676	21.53
359.894	-2.99
360.113	59.79
360.331	41.71
360.549	1668.57
360.767	37.69
360.985	88.06
361.203	-2.29
361.421	57.19
361.639	-2.66
361.857	-9.19
362.075	23.09
362.293	57.5
362.511	-86.08
362.729	-20.92
362.947	-130.89
363.165	-153.75
363.383	-15.42
363.601	46.67
363.819	69.54
364.036	-17.49
364.254	185.03
364.472	-63.46
364.689	40.56
364.907	50.79
365.125	285
365.342	-232.37
365.56	25.86
365.778	7.24
365.995	-356.88
366.213	-83.33
366.43	-34.54
366.648	-38.19
366.865	19.26
367.083	108.7
367.3	-29.17
367.517	-53.79
367.735	59.64
367.952	0.16
368.17	22.56
368.387	-30.74
368.604	39.45
368.821	85.52
369.039	24.33
369.256	20.31
369.473	43.58
369.69	26.9
369.907	-1925
370.124	1118.18
370.341	-0.49
370.558	8.25
370.776	31.68
370.993	14.03
371.21	-124.23
371.426	-2.69
371.643	31.79
371.86	0.1
372.077	125.86
372.294	-59.57
372.511	-1.99
372.728	39.13
372.945	-22.79
373.161	28.22
373.378	-41.52
373.595	-50.72
373.811	26.19
374.028	41.34
374.245	19
374.461	82.59
374.678	49.44
374.895	-1.76
375.111	-98.94
375.328	8.94
375.544	613.51
375.761	-3.04
375.977	48.11
376.194	49.87
376.41	-3.51
376.626	40.27
376.843	27.77
377.059	39.96
377.275	29.6
377.492	79.78
377.708	22.24
377.924	51.92
378.14	-34.26
378.357	49.83
378.573	-86.08
378.789	11.81
379.005	45.37
379.221	-42.36
379.437	2.67
379.653	-10.25
379.869	25.88
380.085	-46
380.301	-12.23
380.517	8.15
380.733	-0.94
380.949	-44.46
381.165	-2.46
381.381	27.85
381.597	27.67
381.813	32.98
382.028	2.1
382.244	-48.88
382.46	-12.52
382.676	-55.28
382.891	-77.81
383.107	16.71
383.323	-10.14
383.538	0.14
383.754	-34.83
383.969	-51.28
384.185	1.49
384.4	27.08
384.616	-10.16
384.831	-19.58
385.047	-35.38
385.262	-11.11
385.478	-21.58
385.693	30.13
385.909	4.06
386.124	12.54
386.339	19.51
386.554	-25.88
386.77	11.49
386.985	-33.48
387.2	15.28
387.415	6.37
387.631	28.71
387.846	1.83
388.061	37.3
388.276	-13.24
388.491	11.27
388.706	-44.91
388.921	3.28
389.136	-14.8
389.351	48.15
389.566	-18.12
389.781	42.57
389.996	45.41
390.211	16.56
390.426	15.9
390.641	0.08
390.855	-27.29
391.07	-7.25
391.285	-19.14
391.5	-41.62
391.714	21.44
391.929	9.58
392.144	26.96
392.358	-16.69
392.573	-21.91
392.788	11.83
393.002	-36.44
393.217	9.96
393.431	-10.75
393.646	-5.4
393.86	-20.16
394.075	-2.51
394.289	-14.45
394.504	14.91
394.718	-4.86
394.933	-16.78
395.147	-0.94
395.361	-6.5
395.576	-0.88
395.79	-26.61
396.004	-2.94
396.218	-2.2
396.432	-3.82
396.647	16.26
396.861	6.89
397.075	-7.93
397.289	-1.92
397.503	5.22
397.717	0.45
397.931	-5.47
398.145	-16.44
398.359	8.61
398.573	-4.31
398.787	-6.83
399.001	7.74
399.215	4.06
399.429	4.3
399.643	-8.76
399.857	-2.6
400.07	-10
400.284	6.12
400.498	-7.88
400.712	11.22
400.925	2.84
401.139	-14.65
401.353	-2.81
401.566	12.41
401.78	-2.46
401.994	-5.27
402.207	0.5
402.421	2.36
402.634	-2.92
402.848	-0.22
403.061	-5.04
403.275	6.77
403.488	-3.13
403.702	3.5
403.915	6.98
404.128	-1.23
404.342	-5.03
404.555	-2.16
404.768	8.45
404.982	5.26
405.195	-7.06
405.408	4.63
405.621	-3.39
405.835	4.86
406.048	-0.18
406.261	8.49
406.474	11.08
406.687	0.01
406.9	1.46
407.113	6.09
407.326	7.08
407.539	-6.19
407.752	-0.72
407.965	5.47
408.178	4.38
408.391	4.44
408.604	3.7
408.817	-3.52
409.029	7.56
409.242	3.17
409.455	-1.82
409.668	-1.81
409.881	-2.79
410.093	1
410.306	-1.83
410.519	-0.23
410.731	-1.95
410.944	3.56
411.157	1.87
411.369	-0.65
411.582	1.15
411.794	0.85
412.007	3.8
412.219	5.91
412.432	1.29
412.644	3.03
412.857	1.38
413.069	4.96
413.281	1.6
413.494	3.42
413.706	6.69
413.918	2.7
414.131	0.9
414.343	0.18
414.555	-0.17
414.767	4.01
414.979	2
415.192	0.84
415.404	0.32
415.616	0.34
415.828	3.86
416.04	-2.14
416.252	7.57
416.464	-0.55
416.676	3.62
416.888	2.09
417.1	-3.07
417.312	3.3
417.524	-0.07
417.736	1
417.948	1.98
418.159	3.55
418.371	1.2
418.583	0.01
418.795	1.2
419.007	5.43
419.218	4.44
419.43	4.94
419.642	0.08
419.853	-0.28
420.065	3.21
420.276	2.85
420.488	3.28
420.7	0.67
420.911	2.79
421.123	2.71
421.334	3.13
421.546	2.98
421.757	2.47
421.969	3.16
422.18	0.75
422.391	0.64
422.603	-0.06
422.814	5.35
423.025	1.54
423.237	3.61
423.448	5.41
423.659	5.19
423.87	-0.12
424.082	2.49
424.293	1.56
424.504	6.5
424.715	3.13
424.926	1.85
425.137	0.74
425.348	4.39
425.559	3.45
425.77	4.12
425.981	5.33
426.192	4.64
426.403	4.04
426.614	0.7
426.825	2.78
427.036	4.75
427.247	-0.3
427.458	5.74
427.668	3.41
427.879	3.45
428.09	5.16
428.301	2.54
428.511	3.16
428.722	2.61
428.933	0.84
429.143	3.3
429.354	4.01
429.565	4.13
429.775	3.27
429.986	4.49
430.196	3.95
430.407	2.57
430.617	1.95
430.828	2.56
431.038	4.09
431.249	4.21
431.459	4.44
431.669	7.5
431.88	6.34
432.09	7.18
432.3	2.53
432.511	4.31
432.721	5.3
432.931	1.93
433.141	4.52
433.351	3.67
433.562	6.35
433.772	4.63
433.982	3.96
434.192	6.12
434.402	5.72
434.612	5.62
434.822	5.57
435.032	4.42
435.242	4.74
435.452	3.81
435.662	5.89
435.872	5.69
436.082	5.47
436.292	6.86
436.502	5.1
436.711	3.82
436.921	6.57
437.131	7.51
437.341	5.19
437.551	7.56
437.76	7.45
437.97	5.73
438.18	5.39
438.389	7.2
438.599	8.39
438.808	7.02
439.018	6.14
439.228	6.49
439.437	6.46
439.647	6.94
439.856	12.81
440.066	6.53
440.275	10.96
440.484	13.98
440.694	9.55
440.903	12.85
441.113	11.86
441.322	12.91
441.531	10.08
441.741	8.45
441.95	12.8
442.159	10.66
442.368	11.79
442.577	9.85
442.787	11.79
442.996	11.2
443.205	11.59
443.414	12.21
443.623	14
443.832	12.24
444.041	15.53
444.25	14.04
444.459	12.24
444.668	14.25
444.877	15.33
445.086	15.43
445.295	15.96
445.504	14.6
445.713	15.65
445.922	12.54
446.13	16.96
446.339	17.33
446.548	13.89
446.757	15.37
446.965	14.61
447.174	14.27
447.383	16.01
447.591	16.7
447.8	14.27
448.009	16.01
448.217	17.48
448.426	15.78
448.634	16.08
448.843	16.78
449.051	17.76
449.26	17
449.468	18.4
449.677	19.56
449.885	18.44
450.093	17.06
450.302	18.55
450.51	18.78
450.719	17.87
450.927	18.93
451.135	14.21
451.343	15.61
451.552	19
451.76	18.17
451.968	20.83
452.176	14.44
452.384	15.65
452.592	15.7
452.8	16.57
453.009	15.49
453.217	16.95
453.425	15.82
453.633	15.23
453.841	15.36
454.049	16.29
454.257	14.68
454.464	15.14
454.672	16.38
454.88	13.91
455.088	15.44
455.296	15.25
455.504	15.35
455.711	12.53
455.919	13.61
456.127	12.25
456.335	15.16
456.542	14.02
456.75	11.52
456.958	10.78
457.165	13
457.373	10.8
457.581	9.78
457.788	9.27
457.996	12.24
458.203	10.94
458.411	12.19
458.618	8.81
458.826	12.05
459.033	12.94
459.24	10.98
459.448	10.09
459.655	11.8
459.863	9.93
460.07	9.77
460.277	5.43
460.484	10.59
460.692	11.82
460.899	11.7
461.106	9.05
461.313	9.58
461.52	5.84
461.728	7.88
461.935	8.54
462.142	7
462.349	9.08
462.556	6.95
462.763	8.27
462.97	7.28
463.177	7.46
463.384	6.86
463.591	4.95
463.798	7.68
464.005	5.99
464.212	6.48
464.418	5.73
464.625	6.33
464.832	5.96
465.039	5
465.246	6
465.452	5.56
465.659	8.01
465.866	3.3
466.072	5.23
466.279	7.37
466.486	4.78
466.692	7.23
466.899	6.24
467.105	3
467.312	3.19
467.519	7.64
467.725	4.19
467.931	2.47
468.138	5.94
468.344	4.04
468.551	2.71
468.757	3.04
468.964	8.33
469.17	3.29
469.376	5.04
469.583	4.14
469.789	5.77
469.995	2.68
470.201	6.11
470.408	5.97
470.614	3.72
470.82	2.74
471.026	0.72
471.232	3.24
471.438	1.99
471.644	4.98
471.85	5.69
472.056	4.3
472.262	4.49
472.468	1.49
472.674	3.57
472.88	5.34
473.086	2.84
473.292	6.46
473.498	3.35
473.704	3.31
473.91	4
474.116	4.79
474.321	0.7
474.527	1.67
474.733	3.51
474.939	3.29
475.144	4.11
475.35	1.96
475.556	1.36
475.761	2.07
475.967	3.07
476.173	2.56
476.378	5.19
476.584	2.85
476.789	3.6
476.995	3.55
477.2	2.9
477.406	3.01
477.611	1.7
477.817	3.13
478.022	1.91
478.227	0.42
478.433	3.6
478.638	3.18
478.843	2.91
479.049	2.29
479.254	1.82
479.459	1.36
479.664	1.51
479.87	3.97
480.075	2.83
480.28	1.66
480.485	3.68
480.69	2.49
480.895	2.25
481.1	1.57
481.306	2.64
481.511	1.88
481.716	1.08
481.921	1.8
482.126	2.4
482.33	1.74
482.535	3.08
482.74	2.03
482.945	3.06
483.15	2.04
483.355	1.79
483.56	2.74
483.765	1.5
483.969	1.47
484.174	2.63
484.379	1.32
484.583	2.18
484.788	2.14
484.993	1.37
485.197	2.52
485.402	1.76
485.607	3.14
485.811	1.09
486.016	3.02
486.22	3.12
486.425	1.63
486.629	2.48
486.834	2.6
487.038	1.57
487.243	1.55
487.447	2.18
487.652	1.44
487.856	2.14
488.06	1.86
488.265	2.24
488.469	1.9
488.673	1.01
488.877	1.64
489.082	2.92
489.286	2.15
489.49	1.04
489.694	2.06
489.898	3.12
490.102	1.4
490.307	1.91
490.511	1.99
490.715	0.97
490.919	1.96
491.123	1.68
491.327	3.06
491.531	1.95
491.735	1.96
491.939	1.7
492.143	1.08
492.346	0.94
492.55	2.51
492.754	1.75
492.958	1.94
493.162	1.92
493.366	0.95
493.569	2.61
493.773	1.9
493.977	1.17
494.18	2.02
494.384	0.26
494.588	2.54
494.791	1.48
494.995	1.36
495.199	1.37
495.402	2.18
495.606	1.3
495.809	1.91
496.013	0.61
496.216	2.01
496.42	1.01
496.623	1.38
496.827	1.65
497.03	2.46
497.233	0.97
497.437	1.59
497.64	1.2
497.843	1.94
498.047	2.2
498.25	2.3
498.453	1.93
498.656	1.42
498.86	2.22
499.063	2.79
499.266	1.32
499.469	1.52
499.672	2.02
499.875	2.16
500.078	1.1
500.281	1.3
500.484	1.86
500.687	0.95
500.89	1.76
501.093	1.93
501.296	2.17
501.499	1.2
501.702	2.73
501.905	2.38
502.108	2.78
502.311	1.86
502.514	2.57
502.716	2.44
502.919	1.73
503.122	2.37
503.325	2.64
503.527	1.81
503.73	2.28
503.933	1.18
504.135	1.1
504.338	1.56
504.541	1.82
504.743	3.07
504.946	1.49
505.148	1.28
505.351	1.41
505.553	0.78
505.756	1.65
505.958	1.93
506.161	2.1
506.363	2.29
506.565	1.65
506.768	1.86
506.97	1.21
507.172	1.32
507.375	1.34
507.577	1.48
507.779	2.69
507.982	2.09
508.184	1.83
508.386	1.41
508.588	2.29
508.79	1.92
508.993	3.15
509.195	2.81
509.397	2.09
509.599	1.44
509.801	1.14
510.003	1.6
510.205	2.56
510.407	2.61
510.609	1.62
510.811	1.6
511.013	1.98
511.215	1.54
511.417	1.36
511.618	1.69
511.82	1.92
512.022	1.95
512.224	1.9
512.426	1.97
512.627	2
512.829	1.96
513.031	2.57
513.233	2.73
513.434	2.13
513.636	1.6
513.838	2.08
514.039	2.17
514.241	2.08
514.442	2.92
514.644	1.91
514.845	1.46
515.047	2.41
515.248	1.92
515.45	1.92
515.651	2.11
515.853	2.23
516.054	1.62
516.256	1.48
516.457	3.48
516.658	1.92
516.86	1.58
517.061	1.93
517.262	2.31
517.463	1.82
517.665	2.1
517.866	2.19
518.067	2.08
518.268	2.11
518.469	1.93
518.67	1.86
518.872	1.45
519.073	1.89
519.274	2.02
519.475	1.79
519.676	1.18
519.877	1.75
520.078	2.02
520.279	2.09
520.48	1.81
520.681	1.8
520.881	1.8
521.082	2.24
521.283	1.56
521.484	1.29
521.685	2.31
521.886	2.25
522.086	2.11
522.287	2.14
522.488	2.07
522.689	2.15
522.889	1.71
523.09	1.81
523.291	2.23
523.491	1.84
523.692	1.44
523.892	2.41
524.093	2.12
524.294	1.56
524.494	1.71
524.695	1.88
524.895	2.12
525.096	2.17
525.296	2.19
525.496	2.27
525.697	2.18
525.897	1.55
526.098	2.31
526.298	2.43
526.498	2.78
526.699	2.26
526.899	2.28
527.099	2.03
527.299	2.59
527.499	2.03
527.7	2.03
527.9	1.95
528.1	2.08
528.3	2.51
528.5	2.19
528.7	1.98
528.9	2.13
529.1	2.3
529.3	1.98
529.5	2.43
529.7	2.39
529.9	2.51
530.1	2
530.3	2.27
530.5	2.12
530.7	2.43
530.9	2.37
531.1	2.26
531.3	2.09
531.499	2.05
531.699	2.05
531.899	1.75
532.099	1.95
532.298	2.27
532.498	2.21
532.698	2.49
532.897	2.25
533.097	2.24
533.297	2.05
533.496	2.08
533.696	2.47
533.895	2.24
534.095	2.48
534.294	2.53
534.494	1.95
534.693	2.24
534.893	2.02
535.092	2.03
535.292	2.18
535.491	2
535.69	1.93
535.89	2.03
536.089	1.96
536.288	2.03
536.488	2.08
536.687	2.6
536.886	1.88
537.085	2.35
537.285	2.27
537.484	1.94
537.683	2.24
537.882	1.93
538.081	2.05
538.28	2.27
538.479	2.22
538.678	1.93
538.877	2.3
539.076	2.17
539.275	2.13
539.474	2.31
539.673	2.53
539.872	1.68
540.071	2.79
540.27	2.43
540.469	2.72
540.668	2.38
540.867	2.6
541.065	2.35
541.264	2.51
541.463	2.17
541.662	2.62
541.861	2.92
542.059	2.45
542.258	2.59
542.457	2.96
542.655	2.31
542.854	2.56
543.052	2.37
543.251	2.68
543.45	2.6
543.648	2.74
543.847	2.41
544.045	2.44
544.244	2.13
544.442	3.14
544.641	2.54
544.839	2.59
545.037	2.86
545.236	2.6
545.434	2.89
545.632	2.61
545.831	2.96
546.029	2.58
546.227	2.64
546.426	2.59
546.624	2.65
546.822	2.52
547.02	2.42
547.218	2.59
547.417	2.65
547.615	2.68
547.813	2.74
548.011	3.09
548.209	2.97
548.407	3.31
548.605	3.13
548.803	2.92
549.001	3.2
549.199	2.96
549.397	2.89
549.595	2.95
549.793	2.77
549.991	3.02
550.189	2.99
550.387	3.07
550.584	3.38
550.782	2.82
550.98	2.88
551.178	3.43
551.376	3.09
551.573	2.79
551.771	2.97
551.969	3.37
552.166	2.67
552.364	3.1
552.562	2.84
552.759	2.97
552.957	3.15
553.154	2.95
553.352	3
553.55	3.01
553.747	2.92
553.945	3.34
554.142	3.14
554.339	3.47
554.537	3.21
554.734	3.37
554.932	3.15
555.129	3.42
555.326	3.14
555.524	3.79
555.721	3.47
555.918	3.57
556.116	3.28
556.313	4
556.51	3.5
556.707	3.67
556.904	3.46
557.102	3.12
557.299	3.59
557.496	3.26
557.693	3.94
557.89	3.74
558.087	3.62
558.284	3.69
558.481	3.78
558.678	3.43
558.875	4.1
559.072	4.04
559.269	3.66
559.466	3.84
559.663	3.77
559.86	3.97
560.057	3.83
560.254	3.73
560.45	3.8
560.647	3.73
560.844	3.66
561.041	4.29
561.237	3.79
561.434	3.98
561.631	4.05
561.828	4.03
562.024	4.36
562.221	3.82
562.418	4.11
562.614	4.12
562.811	4.18
563.007	4.22
563.204	4.28
563.4	4.68
563.597	4.45
563.793	4.32
563.99	4.6
564.186	4.36
564.383	4.9
564.579	4.21
564.775	4.65
564.972	4.68
565.168	4.74
565.365	4.91
565.561	4.76
565.757	4.79
565.953	4.52
566.15	5.04
566.346	4.92
566.542	4.82
566.738	5.04
566.934	4.98
567.131	4.86
567.327	5.39
567.523	4.94
567.719	5.26
567.915	5.42
568.111	5.5
568.307	5.23
568.503	5.37
568.699	5.07
568.895	5.35
569.091	5.55
569.287	5.3
569.483	5.57
569.679	5.58
569.875	5.37
570.07	5.52
570.266	5.72
570.462	5.68
570.658	5.61
570.854	5.35
571.049	5.53
571.245	5.74
571.441	5.66
571.636	6.06
571.832	5.85
572.028	5.63
572.223	5.92
572.419	5.76
572.615	5.74
572.81	6.35
573.006	5.83
573.201	6.04
573.397	6.27
573.592	6.11
573.788	6.33
573.983	6.12
574.179	6.1
574.374	6.54
574.569	6.36
574.765	6.58
574.96	6.18
575.156	6.58
575.351	6.55
575.546	6.52
575.741	6.45
575.937	6.49
576.132	6.97
576.327	6.78
576.522	6.73
576.718	6.76
576.913	6.71
577.108	6.74
577.303	7.03
577.498	6.85
577.693	7.19
577.888	7.03
578.083	7.41
578.278	7.59
578.473	7.17
578.668	7.47
578.863	7.81
579.058	7.46
579.253	7.07
579.448	7.44
579.643	7.73
579.838	7.55
580.033	8.15
580.227	7.99
580.422	8.03
580.617	7.94
580.812	7.91
581.006	8.21
581.201	8.28
581.396	8.18
581.591	8.03
581.785	8.56
581.98	8.54
582.175	8.74
582.369	9
582.564	9.29
582.758	8.89
582.953	9.05
583.147	9.32
583.342	8.65
583.536	8.92
583.731	9.12
583.925	9.47
584.12	9.39
584.314	9.38
584.509	9.56
584.703	9.19
584.897	9.34
585.092	9.51
585.286	9.52
585.48	9.56
585.674	9.56
585.869	9.65
586.063	9.93
586.257	9.6
586.451	9.8
586.646	9.77
586.84	9.44
587.034	9.52
587.228	10.07
587.422	9.64
587.616	10
587.81	10
588.004	10.12
588.198	9.91
588.392	10.29
588.586	10.81
588.78	10.57
588.974	10.22
589.168	10.81
589.362	10.74
589.556	11.05
589.75	10.79
589.944	10.88
590.137	10.53
590.331	10.75
590.525	11.43
590.719	11.51
590.913	11.65
591.106	11.17
591.3	11.3
591.494	11.6
591.687	11.33
591.881	11.84
592.075	11.52
592.268	11.61
592.462	11.56
592.655	11.61
592.849	11.63
593.043	11.81
593.236	12.16
593.43	12.01
593.623	11.73
593.817	12.05
594.01	11.76
594.203	12.35
594.397	12.57
594.59	12.44
594.784	12.48
594.977	12.75
595.17	13.22
595.364	13.19
595.557	13.04
595.75	12.81
595.943	12.86
596.137	12.94
596.33	12.92
596.523	13.32
596.716	13.17
596.909	13.14
597.102	13.85
597.296	13.45
597.489	13.79
597.682	13.3
597.875	13.42
598.068	13.09
598.261	13.42
598.454	13.06
598.647	13.17
598.84	12.84
599.033	13.28
599.226	13.43
599.419	13.6
599.611	13.72
599.804	13.68
599.997	13.96
600.19	14.08
600.383	14.26
600.576	14.55
600.768	14.19
600.961	14.24
601.154	14.02
601.347	14.36
601.539	14.54
601.732	14.38
601.925	14.81
602.117	14.7
602.31	14.89
602.502	14.98
602.695	14.99
602.888	14.39
603.08	14.55
603.273	14.76
603.465	15.19
603.658	15.06
603.85	15.21
604.043	15.08
604.235	14.69
604.427	14.78
604.62	15.08
604.812	14.83
605.004	15.12
605.197	15.08
605.389	15.09
605.581	14.91
605.774	15.22
605.966	15.22
606.158	15.47
606.35	15.74
606.543	15.34
606.735	16.12
606.927	15.7
607.119	15.76
607.311	16.12
607.503	15.78
607.695	15.93
607.887	16.23
608.079	16.18
608.271	16.53
608.463	16.15
608.655	16.63
608.847	16.55
609.039	16.42
609.231	17.21
609.423	16.67
609.615	16.88
609.807	16.86
609.999	16.8
610.191	16.81
610.382	16.49
610.574	16.61
610.766	16.86
610.958	16.57
611.15	16.79
611.341	17.02
611.533	16.44
611.725	16.48
611.916	16.94
612.108	16.94
612.3	16.81
612.491	16.63
612.683	16.62
612.874	17.03
613.066	17.44
613.257	17.04
613.449	16.58
613.64	16.77
613.832	16.47
614.023	16.83
614.215	17.36
614.406	17.3
614.598	16.96
614.789	17.44
614.98	17.2
615.172	17.59
615.363	17.15
615.554	17.23
615.746	16.82
615.937	17.68
616.128	17.38
616.319	17.49
616.511	17.13
616.702	17.6
616.893	17.41
617.084	17.68
617.275	17.52
617.466	17.74
617.658	18.33
617.849	18.27
618.04	17.12
618.231	17.39
618.422	17.39
618.613	17.63
618.804	17.16
618.995	17.28
619.186	16.93
619.377	17.38
619.568	16.92
619.758	17.3
619.949	17.61
620.14	16.78
620.331	17.23
620.522	17.59
620.713	17.66
620.903	17.22
621.094	17.61
621.285	18.11
621.476	17.08
621.666	17.26
621.857	17.59
622.048	17.66
622.238	17.94
622.429	18.15
622.62	18.56
622.81	18.6
623.001	18.42
623.191	18.53
623.382	17.93
623.572	17.79
623.763	17.93
623.953	17.93
624.144	17.25
624.334	17.97
624.525	18.02
624.715	18.04
624.905	18.19
625.096	18.01
625.286	17.69
625.477	17.86
625.667	18.24
625.857	17.46
626.047	17.44
626.238	17.82
626.428	17.6
626.618	17.83
626.808	17.81
626.999	17.82
627.189	17.67
627.379	17.36
627.569	17.79
627.759	17.9
627.949	17.96
628.139	17.5
628.329	17.84
628.519	18.17
628.709	18.15
628.899	17.63
629.089	17.72
629.279	17.54
629.469	17.46
629.659	17.09
629.849	17.42
630.039	17.23
630.229	17.2
630.419	17.22
630.609	17.16
630.798	17.5
630.988	17.35
631.178	17.48
631.368	17.46
631.557	17.76
631.747	18.17
631.937	17.86
632.127	18.24
632.316	18.26
632.506	18.28
632.696	18.52
632.885	18.47
633.075	18.43
633.264	18.26
633.454	18.06
633.643	18.05
633.833	17.82
634.022	18.18
634.212	18.27
634.401	18.04
634.591	18.05
634.78	18.18
634.97	18.14
635.159	18.28
635.348	17.96
635.538	18.25
635.727	18.52
635.916	18.6
636.106	18.17
636.295	17.94
636.484	17.38
636.674	17.72
636.863	17.76
637.052	17.32
637.241	16.97
637.43	17.82
637.619	17.17
637.809	17.77
637.998	18.04
638.187	18.03
638.376	18.2
638.565	18.23
638.754	18.7
638.943	18.01
639.132	17.65
639.321	17.37
639.51	17.26
639.699	16.85
639.888	16.57
640.077	17.04
640.266	17.21
640.455	17.27
640.643	17.32
640.832	17.14
641.021	17.4
641.21	17.31
641.399	16.98
641.587	17.64
641.776	17.55
641.965	17.66
642.154	18
642.342	17.55
642.531	17.53
642.72	17.57
642.908	18.07
643.097	17.89
643.286	17.38
643.474	17.47
643.663	17.28
643.851	17.27
644.04	16.85
644.228	17.51
644.417	17.66
644.605	17.52
644.794	17.53
644.982	18.2
645.171	17.64
645.359	18.11
645.547	17.98
645.736	17.47
645.924	17.47
646.112	17.12
646.301	16.52
646.489	17.03
646.677	16.75
646.866	16.52
647.054	16.71
647.242	16.99
647.43	17.51
647.618	17.09
647.807	16.67
647.995	16.94
648.183	17.31
648.371	16.56
648.559	16.85
648.747	16.82
648.935	17.07
649.123	17.48
649.311	16.98
649.499	17.48
649.687	16.94
649.875	16.7
650.063	16.91
650.251	16.33
650.439	16.47
650.627	17.12
650.815	16.71
651.003	16.64
651.191	16.65
651.378	17.02
651.566	17.23
651.754	16.7
651.942	17.37
652.13	16.86
652.317	16.5
652.505	17.01
652.693	17.02
652.88	16.44
653.068	16.54
653.256	16.13
653.443	16.36
653.631	16.67
653.819	16.25
654.006	16.49
654.194	16.54
654.381	16.53
654.569	16.34
654.756	16.58
654.944	16.37
655.131	16.68
655.319	16.84
655.506	16.64
655.693	16.76
655.881	16.8
656.068	17.09
656.256	17.3
656.443	16.92
656.63	16.52
656.818	17.27
657.005	16.8
657.192	17.06
657.379	17.18
657.567	17.11
657.754	17.08
657.941	17.41
658.128	17
658.315	16.68
658.502	16.56
658.69	16.23
658.877	16.78
659.064	16.96
659.251	17.23
659.438	17
659.625	16.4
659.812	16.74
659.999	16.44
660.186	16.43
660.373	16.42
660.56	16.52
660.747	16.94
660.934	16.8
661.121	17.3
661.308	17.31
661.494	17.12
661.681	16.75
661.868	17.11
662.055	17.05
662.242	16.71
662.428	16.88
662.615	16.95
662.802	16.86
662.989	17.52
663.175	17.58
663.362	18.09
663.549	17.62
663.735	17.53
663.922	16.94
664.109	16.51
664.295	17.14
664.482	16.77
664.668	16.84
664.855	16.93
665.041	16.96
665.228	16.74
665.414	16.79
665.601	16.88
665.787	16.68
665.974	16.75
666.16	16.12
666.347	16.13
666.533	16.13
666.719	16.07
666.906	16.3
667.092	16.9
667.278	16.96
667.465	17.15
667.651	17.17
667.837	16.98
668.023	17.04
668.21	16.91
668.396	17.51
668.582	17.56
668.768	16.75
668.954	16.39
669.14	16.87
669.327	16.83
669.513	17.38
669.699	17.42
669.885	17.35
670.071	17.36
670.257	17.66
670.443	16.72
670.629	16.74
670.815	17.28
671.001	16.87
671.187	17
671.373	16.96
671.559	16.78
671.744	17.21
671.93	16.97
672.116	17.53
672.302	17.43
672.488	17.24
672.674	17.64
672.859	17.56
673.045	17.21
673.231	17.09
673.417	17.17
673.602	17.02
673.788	17.21
673.974	17.37
674.159	17.4
674.345	16.47
674.531	17.02
674.716	16.67
674.902	16.81
675.087	16.96
675.273	17.42
675.459	17.65
675.644	17.27
675.83	17.41
676.015	17.33
676.2	17.59
676.386	16.71
676.571	17.31
676.757	16.75
676.942	16.92
677.128	16.44
677.313	16.49
677.498	16.26
677.684	16.92
677.869	17.11
678.054	17.1
678.24	17.76
678.425	17.52
678.61	17.78
678.795	17.8
678.98	18.17
679.166	17.7
679.351	17.17
679.536	16.98
679.721	17.09
679.906	17.02
680.091	17.11
680.276	16.99
680.461	17.02
680.647	16.66
680.832	17.62
681.017	17.6
681.202	17.19
681.387	17.3
681.572	17.32
681.756	17.07
681.941	17.26
682.126	16.9
682.311	17.07
682.496	16.5
682.681	16.41
682.866	16.55
683.051	16.73
683.235	17.45
683.42	17.53
683.605	17.9
683.79	17.65
683.974	17.45
684.159	16.89
684.344	17.03
684.529	17.29
684.713	17.21
684.898	16.57
685.083	17.51
685.267	16.53
685.452	17.02
685.636	17.32
685.821	17.08
686.005	17.11
686.19	17.01
686.375	17.33
686.559	17.62
686.744	16.79
686.928	17.09
687.112	16.93
687.297	17.06
687.481	16.96
687.666	17.31
687.85	17.08
688.034	16.93
688.219	17.05
688.403	17.04
688.587	16.86
688.772	16.68
688.956	16.9
689.14	16.8
689.324	17.21
689.509	16.78
689.693	16.39
689.877	17
690.061	16.52
690.245	16.65
690.43	16.66
690.614	17.1
690.798	16.56
690.982	16.43
691.166	16.38
691.35	16.63
691.534	16.22
691.718	16.53
691.902	16.79
692.086	16.82
692.27	16.56
692.454	16.77
692.638	17.23
692.822	17.35
693.006	16.72
693.19	16.99
693.373	16.45
693.557	16.74
693.741	16.61
693.925	16.63
694.109	15.87
694.293	16.95
694.476	16.39
694.66	17.28
694.844	16.72
695.027	17.07
695.211	17.04
695.395	16.77
695.578	17.27
695.762	16.4
695.946	16.28
696.129	16.01
696.313	16.1
696.497	16.36
696.68	16.06
696.864	16.16
697.047	16.45
697.231	16.53
697.414	15.97
697.598	15.52
697.781	15.65
697.965	15.69
698.148	15.82
698.331	15.81
698.515	15.46
698.698	15.42
698.881	15.69
699.065	15.93
699.248	16.16
699.431	16.38
699.615	16.53
699.798	16.08
699.981	15.7
700.165	15.84
700.348	15.84
700.531	15.81
700.714	15.46
700.897	15.48
701.08	15.42
701.264	15.76
701.447	15.29
701.63	15.63
701.813	16.34
701.996	16.05
702.179	16.13
702.362	16.41
702.545	16.37
702.728	15.64
702.911	16.32
703.094	15.95
703.277	16.88
703.46	16.7
703.643	16.05
703.826	15.87
704.009	15.4
704.191	15.98
704.374	15.87
704.557	15.73
704.74	15.86
704.923	15.59
705.106	15.54
705.288	15.62
705.471	15.59
705.654	15.43
705.837	15.76
706.019	15.49
706.202	16.25
706.385	15.88
706.567	15.55
706.75	15.95
706.932	15.65
707.115	15.23
707.298	14.49
707.48	14.59
707.663	14.75
707.845	15.11
708.028	15.57
708.21	14.8
708.393	15.52
708.575	15.12
708.758	14.76
708.94	15.76
709.123	16.19
709.305	15.81
709.487	15.73
709.67	15.23
709.852	15.14
710.034	15.37
710.217	15.2
710.399	15.3
710.581	15.37
710.764	15.41
710.946	15.14
711.128	15.34
711.31	14.98
711.492	15.07
711.675	14.84
711.857	15.31
712.039	15.9
712.221	15.26
712.403	15.39
712.585	15.3
712.767	15.37
712.949	15.6
713.131	15.6
713.314	16.11
713.496	15.41
713.678	15.3
713.86	15.61
714.041	15.71
714.223	15.35
714.405	15.23
714.587	15.31
714.769	14.9
714.951	15.31
715.133	14.72
715.315	15.25
715.497	15.92
715.678	15.02
715.86	15.35
716.042	15.16
716.224	15.11
716.406	15.27
716.587	15.05
716.769	14.83
716.951	15.38
717.132	15
717.314	14.95
717.496	15.52
717.677	14.96
717.859	14.69
718.041	14.29
718.222	13.99
718.404	14.22
718.585	14.01
718.767	14.24
718.948	14.63
719.13	14.65
719.311	15.01
719.493	14.4
719.674	14.92
719.856	14.54
720.037	14.28
720.219	14.31
720.4	14.08
720.581	14.15
720.763	14.41
720.944	14.22
721.125	14.32
721.307	14.39
721.488	15.02
721.669	14.77
721.85	14.26
722.032	13.91
722.213	13.99
722.394	14.22
722.575	14.17
722.756	14.14
722.938	14
723.119	14.39
723.3	13.91
723.481	13.87
723.662	13.54
723.843	13.56
724.024	13.46
724.205	13.86
724.386	14.12
724.567	13.41
724.748	14.84
724.929	15.04
725.11	14.21
725.291	14.71
725.472	14.6
725.653	14.92
725.834	14.47
726.015	14.2
726.196	14.24
726.377	14.13
726.557	14.24
726.738	14.58
726.919	14.33
727.1	13.49
727.281	14.23
727.461	14.28
727.642	13.33
727.823	13.34
728.004	13.56
728.184	14.11
728.365	13.92
728.546	13.65
728.726	13.65
728.907	13.94
729.087	13.17
729.268	13.23
729.449	13.77
729.629	13.13
729.81	13.66
729.99	13.49
730.171	13.44
730.351	12.96
730.532	13.06
730.712	12.95
730.893	13.34
731.073	13.08
731.253	13
731.434	13.17
731.614	13.36
731.795	12.79
731.975	13.28
732.155	13.37
732.336	13.69
732.516	13.29
732.696	13.83
732.876	13.63
733.057	13.16
733.237	12.76
733.417	12.58
733.597	13.04
733.778	13.39
733.958	13.29
734.138	12.88
734.318	12.85
734.498	13.19
734.678	12.6
734.858	12.93
735.038	13.18
735.218	13.14
735.398	13.76
735.579	13.34
735.759	13.46
735.939	13.03
736.119	13.94
736.298	13.45
736.478	12.89
736.658	12.88
736.838	13.21
737.018	13.52
737.198	13.57
737.378	12.99
737.558	12.69
737.738	12.98
737.917	13.28
738.097	13.01
738.277	14.07
738.457	13.42
738.637	12.53
738.816	12.85
738.996	13.01
739.176	12.62
739.355	12.44
739.535	12.78
739.715	12.72
739.894	12.92
740.074	12.73
740.254	12.08
740.433	11.74
740.613	11.44
740.792	13.06
740.972	12.97
741.151	12.28
741.331	11.8
741.51	12.44
741.69	12.49
741.869	13.33
742.049	12.97
742.228	12.36
742.408	12.39
742.587	13.24
742.766	12.27
742.946	12.69
743.125	12.44
743.305	12.72
743.484	12.64
743.663	12.38
743.842	12.23
744.022	12.49
744.201	12.78
744.38	12.3
744.56	12.79
744.739	12.99
744.918	12.89
745.097	12.58
745.276	12.92
745.455	12.14
745.635	12.36
745.814	12.38
745.993	13.1
746.172	11.86
746.351	12.46
746.53	12.95
746.709	12.44
746.888	13.03
747.067	12.64
747.246	12.39
747.425	12.66
747.604	12.77
747.783	12.47
747.962	12.24
748.141	12.45
748.32	12.55
748.499	12.95
748.677	12.94
748.856	11.84
749.035	12.98
749.214	12.71
749.393	12.44
749.572	12.41
749.75	12.62
749.929	12.66
750.108	11.98
750.287	12.39
750.465	11.87
750.644	12.36
750.823	11.8
751.001	11.81
751.18	11.86
751.359	11.81
751.537	11.97
751.716	11.6
751.894	11.52
752.073	11.83
752.251	11.44
752.43	12.1
752.609	12.1
752.787	11.85
752.966	11.53
753.144	11.26
753.322	10.88
753.501	11.27
753.679	11.21
753.858	10.81
754.036	10.94
754.215	10.88
754.393	10.8
754.571	10.3
754.75	10.74
754.928	11.26
755.106	11.02
755.284	11.96
755.463	11.22
755.641	11.47
755.819	11.42
755.997	11.51
756.176	11.38
756.354	11.58
756.532	11.7
756.71	11.76
756.888	11.37
757.066	11.57
757.245	11.52
757.423	10.8
757.601	10.66
757.779	10.87
757.957	10.94
758.135	10.81
758.313	10.93
758.491	11.03
758.669	11.04
758.847	10.92
759.025	11.07
759.203	11.15
759.381	11.34
759.559	11.38
759.737	11.53
759.915	10.8
760.092	11.72
760.27	11.09
760.448	10.87
760.626	10.37
760.804	11.41
760.981	11.34
761.159	11
761.337	11.15
761.515	11.16
761.692	11.77
761.87	11.51
762.048	10.5
762.226	11.03
762.403	10.73
762.581	10.64
762.759	11.19
762.936	11
763.114	11.65
763.291	10.8
763.469	11.2
763.647	11.68
763.824	10.75
764.002	11.89
764.179	11.38
764.357	11.39
764.534	10.38
764.712	11.17
764.889	11.01
765.066	10.97
765.244	10.12
765.421	10.48
765.599	9.88
765.776	11.31
765.953	10.16
766.131	11.22
766.308	10.88
766.485	11.19
766.663	10.95
766.84	10.69
767.017	10.9
767.194	10.09
767.372	9.96
767.549	10.82
767.726	11.07
767.903	10.45
768.081	10.01
768.258	9.79
768.435	10.26
768.612	10.52
768.789	10.36
768.966	10.07
769.143	10.32
769.32	10.64
769.497	11.48
769.674	10.68
769.851	10.24
770.028	10.59
770.205	10.28
770.382	10.66
770.559	9.73
770.736	11.18
770.913	10.46
771.09	10.7
771.267	9.96
771.444	9.51
771.621	9.38
771.798	9.8
771.975	10.85
772.151	10.9
772.328	10.24
772.505	10.11
772.682	9.13
772.859	10.82
773.035	9.47
773.212	9.59
773.389	9.99
773.565	10.26
773.742	9.59
773.919	9.98
774.096	10.09
774.272	10.33
774.449	9.56
774.625	9.35
774.802	10.28
774.979	9.73
775.155	9.92
775.332	9.69
775.508	10.38
775.685	10.17
775.861	10.54
776.038	10.39
776.214	8.94
776.391	9.58
776.567	10.75
776.744	11.02
776.92	10.85
777.096	9.99
777.273	9.39
777.449	10.71
777.626	9.29
777.802	9.43
777.978	10.46
778.155	9.88
778.331	9.46
778.507	9.61
778.683	9.1
778.86	9.75
779.036	11.09
779.212	9.97
779.388	10.12
779.565	9.05
779.741	11.25
779.917	10.17
780.093	9.54
780.269	9.01
780.445	9.63
780.621	9.55
780.797	9.43
780.974	9.07
781.15	8.94
781.326	9.5
781.502	9.01
781.678	10.58
781.854	9.8
782.03	8.62
782.206	10.97
782.382	9.21
782.558	10.57
782.733	9.93
782.909	9.29
783.085	9.95
783.261	9.82
783.437	8.86
783.613	9.76
783.789	9.84
783.965	10.62
784.14	9.24
784.316	9.57
784.492	8.34
784.668	8.01
784.843	8.74
785.019	9.66
785.195	9.6
785.371	9.68
785.546	10.73
785.722	9.14
785.898	7.77
786.073	9.53
786.249	9.08
786.424	9.73
786.6	9.54
786.776	9.04
786.951	7.5
787.127	11.03
787.302	8.72
787.478	9.16
787.653	9.94
787.829	8.22
788.004	9.87
788.18	9.65
788.355	10.01
788.531	9.71
788.706	8.95
788.881	8.18
789.057	9.82
789.232	9.1
789.408	10.86
789.583	9.9
789.758	8.86
789.934	8.22
790.109	9.59
790.284	9.83
790.459	9.29
790.635	9.71
790.81	8.7
790.985	9.61
791.16	8
791.336	9.05
791.511	7.79
791.686	9.23
791.861	9.32
792.036	10.51
792.211	9.79
792.387	8.01
792.562	8.59
792.737	7.97
792.912	7.86
793.087	8.53
793.262	7.94
793.437	7.51
793.612	8.59
793.787	7.9
793.962	7.76
794.137	9.01
794.312	8.37
794.487	9.58
794.662	10.38
794.837	8.45
795.011	7.57
795.186	9.85
795.361	8.31
795.536	9.17
795.711	7.82
795.886	7.79
796.06	5.55
796.235	9.49
796.41	7.42
796.585	9.07
796.76	9.24
796.934	7.65
797.109	9.4
797.284	8.12
797.458	9.33
797.633	9.23
797.808	7.16
797.982	9.83
798.157	10.29
798.332	7.99
798.506	8.17
798.681	8.52
798.855	8.31
799.03	9.78
799.204	9.25
799.379	7.86
799.553	9.48
799.728	7.28
799.902	8.65
800.077	8.48
800.251	11.03
800.426	9.65
800.6	7.88
800.775	8.79
800.949	9.3
801.123	8.77
801.298	8.09
801.472	8.15
801.647	8.34
801.821	5.76
801.995	6.82
802.169	7.8
802.344	6.72
802.518	7.59
802.692	7.3
802.867	7.01
803.041	8.56
803.215	6.15
803.389	7.84
803.563	5.55
803.737	6.87
803.912	7.11
804.086	7.29
804.26	9.35
804.434	8.32
804.608	8.26
804.782	8.8
804.956	9.57
805.13	7.8
805.304	6.91
805.478	8.76
805.652	11.76
805.826	14.12
806	7.68
806.174	12.3
806.348	8.47
806.522	6.63
806.696	8.58
806.87	6.45
807.044	6.76
807.218	12.46
807.392	10.67
807.566	7.81
807.739	8.73
807.913	8.11
808.087	10.47
808.261	6.48
808.435	6.43
808.608	6.26
808.782	6.39
808.956	8.34
809.13	8.58
809.303	9.21
809.477	9.19
809.651	11.46
809.824	8.52
809.998	8.89
810.172	8.8
810.345	9.49
810.519	7.34
810.692	8.34
810.866	7.97
811.04	8.94
811.213	10.54
811.387	9.05
811.56	9.88
811.734	9.19
811.907	7.83
812.081	9.25
812.254	8.94
812.428	9.91
812.601	6.11
812.774	12.13
812.948	8.66
813.121	6.36
813.295	10.27
813.468	10.71
813.641	5.75
813.815	6.51
813.988	8.3
814.161	8.09
814.335	8.88
814.508	7.35
814.681	6.26
814.854	6.6
815.028	8.04
815.201	8.56
815.374	7.21
815.547	7.04
815.72	8.08
815.894	10.13
816.067	11.06
816.24	10.39
816.413	7.55
816.586	8.68
816.759	8.44
816.932	7.13
817.105	11.58
817.278	8.6
817.452	10.33
817.625	7.93
817.798	9.07
817.971	9.27
818.144	6.11
818.317	10.91
818.49	8.92
818.662	7.08
818.835	7.83
819.008	4.18
819.181	11.61
819.354	9.79
819.527	11.58
819.7	4.23
819.873	11.25
820.046	10.73
820.218	9.04
820.391	11.45
820.564	7.68
820.737	5.98
820.909	7.25
821.082	4.34
821.255	7.81
821.428	10.71
821.6	7
821.773	11.25
821.946	6.98
822.118	10.1
822.291	10.31
822.464	6.1
822.636	8.09
822.809	9.85
822.982	9.96
823.154	10.74
823.327	10.24
823.499	5.57
823.672	9.19
823.844	4.43
824.017	8.78
824.189	9.11
824.362	7.78
824.534	10.86
824.707	11.56
824.879	4.77
825.052	8.61
825.224	8.77
825.396	5.47
825.569	10.91
825.741	8.17
825.914	8.22
826.086	8.93
826.258	10.06
826.431	10.61
826.603	8.26
826.775	7.89
826.947	4.39
827.12	11.93
827.292	9.92
827.464	7.32
827.636	9.79
827.809	11.42
827.981	8.63
828.153	6.31
828.325	9.79
828.497	7.74
828.669	7.5
828.842	6.91
829.014	7.95
829.186	8.58
829.358	6.1
829.53	9.05
829.702	10.51
829.874	6.47
830.046	7.67
830.218	9.65
830.39	6.46
830.562	11.69
830.734	8.12
830.906	8.49
831.078	3.48
831.25	12.27
831.422	1.7
831.594	9.45
831.766	8.79
831.937	8.32
832.109	12.12
832.281	9.98
832.453	6.58
832.625	7.11
832.797	7.05
832.968	12.53
833.14	9.74
833.312	10.03
833.484	9.37
833.655	9.71
833.827	6.3
833.999	7.86
834.171	9.5
834.342	11.61
834.514	10.9
834.686	7.82
834.857	8.83
835.029	5.9
835.2	13.48
835.372	7.44
835.544	7.2
835.715	6.55
835.887	7.98
836.058	5.72
836.23	7.55
836.401	10.83
836.573	7.19
836.744	4.97
836.916	6.01
837.087	4.73
837.259	6.89
837.43	6.25
837.602	7.91
837.773	10.66
837.945	6.26
838.116	7.81
838.287	1.71
838.459	7.81
838.63	7.37
838.801	11.24
838.973	5.67
839.144	9.92
839.315	10.83
839.487	9.24
839.658	10.22
839.829	5.81
840	3.75
840.172	4.44
840.343	2.94
840.514	8.69
840.685	9.18
840.856	7.91
841.027	7.13
841.199	11.92
841.37	9.01
841.541	7.12
841.712	10.8
841.883	14.5
842.054	9.48
842.225	9.68
842.396	8.87
842.567	3.49
842.738	9.75
842.909	10.9
843.08	9.11
843.251	5.73
843.422	10.98
843.593	8.72
843.764	5.83
843.935	10.25
844.106	12.05
844.277	12.12
844.448	15.2
844.619	7.62
844.79	11.33
844.96	10.7
845.131	11.76
845.302	3.12
845.473	12.13
845.644	7.84
845.814	9.06
845.985	10.18
846.156	9.79
846.327	5.3
846.497	8.27
846.668	5.92
846.839	7.61
847.01	10.51
847.18	6.47
847.351	7.84
847.522	7.5
847.692	11.13
847.863	7.74
848.033	5.19
848.204	14.48
848.375	11.06
848.545	13.68
848.716	12.02
848.886	10.97
849.057	7.49
849.227	6.6
849.398	10.61
849.568	8.08
849.739	11.18
849.909	4.37
850.08	13.15
850.25	4.46
850.421	9.02
850.591	11.39
850.761	7.02
850.932	1.87
851.102	0.92
851.272	10.91
851.443	9.74
851.613	5.83
851.783	7.49
851.954	5.21
852.124	13.15
852.294	7.15
852.465	4.66
852.635	12.44
852.805	6.9
852.975	5.43
853.145	9.12
853.316	12.34
853.486	7.29
853.656	12.91
853.826	4.58
853.996	10.96
854.166	8.9
854.337	9.74
854.507	11.97
854.677	7.23
854.847	11.51
855.017	1.74
855.187	12.57
855.357	5.49
855.527	6.79
855.697	10.04
855.867	3.32
856.037	10.35
856.207	9.31
856.377	9.51
856.547	6.2
856.717	12.18
856.887	5.63
857.057	14.45
857.227	5.3
857.397	12.65
857.566	13.55
857.736	5.46
857.906	5.05
858.076	10.22
858.246	1.81
858.416	4.88
858.585	4.49
858.755	3.73
858.925	5.62
859.095	9.49
859.264	8.58
859.434	3.22
859.604	5.87
859.774	6.94
859.943	7.82
860.113	7.4
860.283	7.24
860.452	3.24
860.622	5.79
860.791	6.42
860.961	8.34
861.131	8.05
861.3	6.81
861.47	0.73
861.639	4.9
861.809	10.83
861.978	11.61
862.148	4.98
862.318	9.04
862.487	5.96
862.657	13.56
862.826	3.37
862.995	4.47
863.165	19.3
863.334	1.2
863.504	12.71
863.673	4.89
863.843	10.65
864.012	14.29
864.181	10.16
864.351	9.51
864.52	4.69
864.689	1
864.859	1.64
865.028	2.23
865.197	5.24
865.366	11.76
865.536	9.35
865.705	13.16
865.874	-0.53
866.043	13.14
866.213	2.08
866.382	6.25
866.551	18.37
866.72	20.36
866.889	5.96
867.059	-8.65
867.228	6.42
867.397	-0.91
867.566	-1.04
867.735	13.1
867.904	6.72
868.073	2.74
868.242	12.61
868.411	7.47
868.58	8.48
868.749	11.5
868.918	1.12
869.087	15.42
869.256	3.42
869.425	12.38
869.594	9.05
869.763	4.53
869.932	13.09
870.101	0.02
870.27	-3.93
870.439	4.48
870.608	14.48
870.777	3.26
870.945	4.96
871.114	17.75
871.283	9.42
871.452	16.53
871.621	13.71
871.789	3.82
871.958	7.05
872.127	-3.82
872.296	5.78
872.464	11.07
872.633	18.59
872.802	13.88
872.971	15.92
873.139	13.44
873.308	15.3
873.477	8.82
873.645	14.22
873.814	18.99
873.983	-1.51
874.151	0.02
874.32	15.57
874.488	6.65
874.657	7.99
874.826	12.51
874.994	15.49
875.163	-3.05
875.331	20
875.5	9.64
875.668	15.25
875.837	8.97
876.005	-2.47
876.174	11.42
876.342	8.16
876.51	4.99
876.679	9.1
876.847	11.07
877.016	5.42
877.184	2.29
877.352	16.02
877.521	15.22
877.689	9.58
877.857	2.74
878.026	2.8
878.194	9.54
878.362	10.52
878.531	-1.22
878.699	3.79
878.867	9.59
879.036	3.54
879.204	4
879.372	11.82
879.54	-0.32
879.708	21.91
879.877	8.39
880.045	15.07
880.213	18.99
880.381	15.18
880.549	14.1
880.717	9.48
880.885	16.21
881.054	-1.75
881.222	10.54
881.39	11.07
881.558	13.92
881.726	-1.59
881.894	6.18
882.062	8.86
882.23	11.73
882.398	3.89
882.566	1.85
882.734	7.03
882.902	19.75
883.07	7.04
883.238	4.54
883.406	2.19
883.574	-4.07
883.741	10.58
883.909	6.81
884.077	14.58
884.245	21.83
884.413	5.43
884.581	-0.32
884.749	1.01
884.916	8.51
885.084	15.71
885.252	11.7
885.42	-0.66
885.587	17.25
885.755	6.57
885.923	6.85
886.091	9.79
886.258	8.81
886.426	-7.61
886.594	-4.33
886.761	8.49
886.929	11.96
887.097	4.08
887.264	3.53
887.432	10.6
887.6	5.74
887.767	6.15
887.935	10.66
888.102	2.45
888.27	10.02
888.438	10.49
888.605	3.2
888.773	15.92
888.94	21.41
889.108	-1.47
889.275	11.8
889.443	2.5
889.61	18.87
889.778	3.61
889.945	-10.36
890.112	2.13
890.28	10.78
890.447	6.44
890.615	8.49
890.782	14.45
890.949	-2.51
891.117	-6.35
891.284	0.03
891.452	-8.83
891.619	-4.89
891.786	2.64
891.953	17.47
892.121	16.12
892.288	13.62
892.455	6.69
892.623	10.36
892.79	1.91
892.957	10.25
893.124	27.01
893.291	3.98
893.459	17.89
893.626	27.81
893.793	11.22
893.96	-0.31
894.127	11.92
894.294	25.97
894.461	-4.21
894.629	16.38
894.796	8.66
894.963	4.81
895.13	11.3
895.297	-2.52
895.464	15.64
895.631	9.34
895.798	24.06
895.965	14.1
896.132	1.5
896.299	22.3
896.466	5.82
896.633	13.01
896.8	6.87
896.967	14.42
897.134	7.07
897.301	-10.52
897.467	5.93
897.634	8.61
897.801	5.03
897.968	0.7
898.135	5.47
898.302	3.07
898.469	2.75
898.635	18.02
898.802	10.02
898.969	5.84
899.136	18.95
899.303	0.67
