Data from y0_Transmission_15-23-47-290.txt Node
Date: Thu May 02 15:23:47 EDT 2019
User: dh1006
Spectrometer: USB4E01358
Autoset integration time: false
Trigger mode: 4
Integration Time (sec): 8.000000E-2
Scans to average: 1
Electric dark correction enabled: true
Nonlinearity correction enabled: false
Boxcar width: 0
Stray light correction enabled: false
XAxis mode: Wavelengths
Stop averaging: false
Number of Pixels in Spectrum: 3648
>>>>>Begin Spectral Data<<<<<
176.727	536.67
176.966	536.67
177.205	536.67
177.444	-32.02
177.683	78.03
177.922	126.33
178.161	341.67
178.4	242
178.638	-5725
178.877	-105.8
179.116	320
179.355	390.91
179.593	-39.44
179.832	65.45
180.071	9.06
180.309	2400
180.548	120.42
180.786	168.54
181.025	-5400
181.263	28.62
181.502	-101.68
181.74	45.82
181.979	-29.76
182.217	-117.34
182.456	186.69
182.694	-84.81
182.932	-35.95
183.17	45.82
183.409	-93.88
183.647	27.32
183.885	251.58
184.123	99.63
184.361	557.55
184.6	-51.52
184.838	4711.11
185.076	-316.07
185.314	-52.72
185.552	74.25
185.79	6.22
186.028	77.29
186.266	22.55
186.503	1.46
186.741	39.56
186.979	246.37
187.217	-13525
187.455	-101.68
187.693	-33.97
187.93	0.65
188.168	531.25
188.406	61.81
188.643	72.47
188.881	-746.38
189.119	-117.72
189.356	-308.33
189.594	-1.45
189.831	122.31
190.069	-143.68
190.306	-101.22
190.543	61.6
190.781	-3.19
191.018	-26.67
191.256	673.77
191.493	-7.24
191.73	-229.7
191.967	-37.5
192.205	-224.73
192.442	29.98
192.679	-13525
192.916	-135
193.153	93.23
193.39	-780.36
193.628	438.18
193.865	-5.16
194.102	326.19
194.339	15.73
194.576	-54.51
194.813	12.69
195.049	3.13
195.286	-38.87
195.523	-111.95
195.76	-6.14
195.997	-193.01
196.234	-65.76
196.47	52.49
196.707	-83.58
196.944	-21.13
197.18	-31.09
197.417	307.81
197.654	-3.89
197.89	4.56
198.127	-25.11
198.363	158.62
198.6	18.12
198.836	-49.78
199.073	-1.04
199.309	62.65
199.546	-11.15
199.782	-328.77
200.018	-1283.33
200.255	-36.28
200.491	-2074.42
200.727	77.49
200.963	-65.98
201.199	-220.72
201.436	376.97
201.672	-12.89
201.908	181.8
202.144	-39.27
202.38	-350.53
202.616	15.46
202.852	134.65
203.088	5.9
203.324	155.79
203.56	243.9
203.796	5.94
204.032	-10.74
204.268	2400
204.503	175.78
204.739	-162.43
204.975	10.81
205.211	-148
205.446	-4.33
205.682	6.23
205.918	11.63
206.153	-20.85
206.389	106.94
206.625	125
206.86	79.2
207.096	141.25
207.331	62.11
207.567	-60.22
207.802	-40.82
208.037	173.04
208.273	1.06
208.508	-464.81
208.744	-139.18
208.979	-18.91
209.214	-10600
209.449	-129.6
209.685	-27.52
209.92	93.06
210.155	-194.54
210.39	52.68
210.625	32.14
210.86	-60.16
211.095	348.04
211.33	18.88
211.565	-789.81
211.8	218.39
212.035	36.36
212.27	40.37
212.505	118.09
212.74	30.96
212.975	1277.27
213.21	73.21
213.444	-69.6
213.679	-74.66
213.914	-58.59
214.149	-73
214.383	14.5
214.618	38.33
214.853	-76.06
215.087	184.41
215.322	-65.65
215.556	54.77
215.791	-1046.51
216.025	47.11
216.26	-49.85
216.494	537.84
216.729	281.48
216.963	-174.37
217.197	54
217.432	34.28
217.666	-168.29
217.9	-21.57
218.135	-20.29
218.369	5000
218.603	251.5
218.837	-5.1
219.071	99.61
219.306	5.51
219.54	43.75
219.774	4.31
220.008	235.93
220.242	-60.33
220.476	-811.76
220.71	37.24
220.944	28.18
221.178	-897.56
221.411	60
221.645	-83.99
221.879	63.88
222.113	190
222.347	-27.89
222.58	-51.8
222.814	-2.51
223.048	-127.78
223.281	-19.16
223.515	754.87
223.749	-232.5
223.982	-64.51
224.216	359
224.449	-20.39
224.683	-91.4
224.916	-284.26
225.15	5.92
225.383	359
225.617	-50.96
225.85	4.16
226.083	421.74
226.317	-60.55
226.55	126.63
226.783	16.67
227.016	-7.2
227.25	988.57
227.483	125
227.716	-14.29
227.949	-106.73
228.182	-31.33
228.415	-97.15
228.648	-476.25
228.881	-84.74
229.114	-156.06
229.347	81.53
229.58	996
229.813	20.16
230.046	41.29
230.279	-21.83
230.512	-11.39
230.745	-24.69
230.977	18.92
231.21	29.1
231.443	-52.89
231.675	78.57
231.908	1100
232.141	27.71
232.373	-172.63
232.606	-341.5
232.839	37.55
233.071	-113.33
233.304	-200
233.536	-323.16
233.769	111.52
234.001	-14.95
234.233	-67.59
234.466	-17.47
234.698	430.88
234.93	-191.03
235.163	0.98
235.395	72.09
235.627	-17.8
235.86	-501.45
236.092	44.16
236.324	-15.14
236.556	17.23
236.788	45.38
237.02	74.65
237.252	-44.52
237.484	56.14
237.716	-1196.67
237.948	108.91
238.18	154.55
238.412	191.96
238.644	221.48
238.876	-94.37
239.108	-121.84
239.34	290.16
239.571	-146.78
239.803	9.59
240.035	183.39
240.267	82.83
240.498	2544.44
240.73	183.61
240.962	-75.88
241.193	-40.43
241.425	-3.28
241.656	342.45
241.888	57.88
242.119	3.71
242.351	-200
242.582	-89.62
242.814	4.13
243.045	32.47
243.277	-54.48
243.508	-77.03
243.739	-147.4
243.971	-53.03
244.202	-25.07
244.433	160.69
244.664	0.71
244.896	-97.15
245.127	3.83
245.358	-687.5
245.589	55.49
245.82	260.81
246.051	44.84
246.282	0.67
246.513	26.4
246.744	0.45
246.975	-310.98
247.206	-15.51
247.437	-159.72
247.668	-597.22
247.899	38.56
248.129	-45.62
248.36	-22.86
248.591	18.61
248.822	-29.4
249.052	32.84
249.283	4.16
249.514	37.09
249.744	-76.7
249.975	83.86
250.206	-12.34
250.436	-93.31
250.667	435.97
250.897	54.64
251.128	-36.81
251.358	327.03
251.589	171.94
251.819	84.76
252.049	-138.99
252.28	8
252.51	-75.28
252.74	-36.96
252.971	-6700
253.201	-36.55
253.431	9.74
253.661	-101.89
253.891	-167.5
254.121	-25.79
254.352	77.33
254.582	877.14
254.812	27.89
255.042	-186.93
255.272	-77.17
255.502	-79.89
255.732	-922.22
255.962	545.9
256.192	-12.43
256.421	87.46
256.651	-51.35
256.881	-55.56
257.111	69.78
257.341	-85.91
257.57	78.98
257.8	-1.22
258.03	72.32
258.259	7.93
258.489	-10.65
258.719	-57.53
258.948	18.12
259.178	37.18
259.407	179.65
259.637	-8.1
259.866	-143.12
260.096	80.9
260.325	-27.17
260.555	-36.13
260.784	23.28
261.013	-873.21
261.243	39.66
261.472	256.76
261.701	48.44
261.931	-76.89
262.16	218.22
262.389	-21.83
262.618	-67.05
262.847	-35.54
263.076	45.13
263.305	-206.82
263.535	-316.51
263.764	73.4
263.993	7.66
264.222	45.82
264.451	46.21
264.679	57.04
264.908	-8.22
265.137	0.44
265.366	25.64
265.595	142.11
265.824	-27.06
266.053	-6.66
266.281	-275.14
266.51	-41.62
266.739	62.4
266.967	-1.02
267.196	8575
267.425	-64.72
267.653	-73.47
267.882	10.29
268.11	480.95
268.339	-90.14
268.567	-377.83
268.796	-47.06
269.024	-617.86
269.253	-73.75
269.481	23.57
269.709	-117.27
269.938	31.87
270.166	57.89
270.394	52.89
270.623	43.26
270.851	-25.15
271.079	6.95
271.307	28.41
271.535	150.43
271.764	-8.16
271.992	247.16
272.22	3.71
272.448	43.27
272.676	-93.57
272.904	-141.72
273.132	5.04
273.36	-36.46
273.588	111.52
273.816	-34.55
274.043	13.16
274.271	64.5
274.499	-9.33
274.727	221.3
274.955	34.37
275.182	-19.89
275.41	-220.97
275.638	189.53
275.866	1045.83
276.093	-82.16
276.321	-230.66
276.548	-64.39
276.776	23.75
277.003	42.55
277.231	1620
277.458	26.58
277.686	-126.87
277.913	-191.87
278.141	-6.66
278.368	43.45
278.595	-12.05
278.823	-342.68
279.05	-110.83
279.277	-23.23
279.505	-70
279.732	7.17
279.959	1768.57
280.186	1.23
280.413	-32.53
280.641	-87.28
280.868	-27.71
281.095	-36.13
281.322	-763.33
281.549	-116.47
281.776	-46.36
282.003	32.04
282.23	10.69
282.457	52.49
282.683	27.31
282.91	-29.37
283.137	15.44
283.364	272.73
283.591	-63.45
283.818	-1500
284.044	-441.86
284.271	130.05
284.498	-144.22
284.724	36.36
284.951	69.78
285.178	27.73
285.404	-26.91
285.631	169.54
285.857	-98.44
286.084	8.49
286.31	-74.73
286.537	-28.87
286.763	32.25
286.99	69.11
287.216	6444.44
287.442	-323.81
287.669	56.42
287.895	4.65
288.121	351.8
288.347	-41.6
288.574	16.67
288.8	-37.5
289.026	-3.03
289.252	-105.61
289.478	42.54
289.704	-16.01
289.931	3.71
290.157	-40.22
290.383	1.91
290.609	3.35
290.835	-3.41
291.06	11.17
291.286	-15.75
291.512	-34.68
291.738	345.16
291.964	24.3
292.19	-271.01
292.416	-234.95
292.641	-81.82
292.867	-59.46
293.093	728.57
293.319	30.87
293.544	-47.35
293.77	156.45
293.995	87.56
294.221	-131.9
294.447	61.45
294.672	-90.76
294.898	-2.2
295.123	4.57
295.349	-282.28
295.574	878.05
295.799	-28.87
296.025	7.82
296.25	-37.5
296.476	281
296.701	2.12
296.926	-119.64
297.151	-195.08
297.377	245.71
297.602	-88.92
297.827	49.38
298.052	-21.25
298.277	65.79
298.502	-5.82
298.727	-5.51
298.953	4.23
299.178	54.79
299.403	54.77
299.628	9.27
299.852	-210.92
300.077	-2647.06
300.302	-1.53
300.527	1.27
300.752	134.92
300.977	684
301.202	396.72
301.426	-83.99
301.651	19.76
301.876	206.25
302.101	-246.61
302.325	20.81
302.55	-59.21
302.775	64.95
302.999	-25.54
303.224	-130.03
303.448	9.49
303.673	-741.67
303.897	27.33
304.122	-90.1
304.346	-34.33
304.571	-25.08
304.795	-138.1
305.019	-33.72
305.244	81.99
305.468	555.41
305.692	611.52
305.917	-146.28
306.141	-45.29
306.365	396.72
306.589	-29.76
306.813	-34.28
307.038	75.48
307.262	-114.19
307.486	56.9
307.71	450
307.934	40.1
308.158	-42.2
308.382	4.04
308.606	-100.82
308.83	21.67
309.054	-171.11
309.278	40.13
309.502	57.02
309.725	-207.51
309.949	-61.65
310.173	45.31
310.397	51.86
310.62	100.75
310.844	-82.67
311.068	-224.37
311.292	47.86
311.515	-26.86
311.739	1750
311.962	-2.25
312.186	43.46
312.41	-57.53
312.633	-31.99
312.857	23.56
313.08	-500.93
313.303	-81.57
313.527	-98.24
313.75	-62.71
313.974	-47.49
314.197	-157.76
314.42	163.28
314.644	79.32
314.867	35.7
315.09	-91.85
315.313	18.96
315.536	-27.39
315.76	-146.21
315.983	26.78
316.206	-79.45
316.429	3.13
316.652	-217.33
316.875	8.89
317.098	7.04
317.321	-43.24
317.544	60
317.767	-14.72
317.99	-10.85
318.213	-24.64
318.436	-105.38
318.658	-30.25
318.881	-122.88
319.104	-17.38
319.327	4.74
319.55	224.7
319.772	65.99
319.995	-503.33
320.218	24.73
320.44	171.43
320.663	54.06
320.885	-137.31
321.108	-10.29
321.331	-49.9
321.553	-208.23
321.776	-10600
321.998	-4.65
322.22	-4.58
322.443	-32.58
322.665	77.33
322.888	44.48
323.11	-56.84
323.332	-10.97
323.555	182.35
323.777	-120.18
323.999	-87.9
324.221	-15.05
324.443	-16.21
324.666	-44.51
324.888	7.04
325.11	-490.08
325.332	15.58
325.554	-132.55
325.776	22.19
325.998	283.72
326.22	-49.28
326.442	-153.18
326.664	-61.65
326.886	-114.15
327.108	24.14
327.33	-3.56
327.551	-2.01
327.773	22.86
327.995	-30.94
328.217	-47.27
328.439	-29.51
328.66	-20.63
328.882	-597.52
329.104	-455.36
329.325	12.44
329.547	48.36
329.769	-41.25
329.99	-1.85
330.212	1270.49
330.433	27.56
330.655	-41.81
330.876	7.62
331.098	439.34
331.319	-13.3
331.54	7.93
331.762	-26.67
331.983	50.6
332.204	-22.2
332.426	33.24
332.647	260.11
332.868	23.09
333.089	-249.31
333.311	3.71
333.532	-18.6
333.753	-590
333.974	-14.56
334.195	-118.75
334.416	82.51
334.637	30.65
334.858	68.72
335.079	125
335.3	-139.96
335.521	-265.33
335.742	-520.29
335.963	-1.53
336.184	7.16
336.405	14.54
336.626	25.32
336.846	-319.3
337.067	165.24
337.288	6.82
337.509	-2150
337.729	76.91
337.95	-713.95
338.171	-121.61
338.391	-132.03
338.612	18.4
338.833	775
339.053	-152.58
339.274	71.48
339.494	3.71
339.715	718.25
339.935	-117.72
340.156	28.6
340.376	-46.68
340.596	-34.87
340.817	617.14
341.037	46.84
341.257	-37.5
341.478	6.33
341.698	-44.57
341.918	-273.12
342.138	10.88
342.359	-32.26
342.579	-51.87
342.799	31.44
343.019	30.41
343.239	18.47
343.459	53.39
343.679	19.85
343.899	40.74
344.119	17.81
344.339	34.49
344.559	24.69
344.779	-81.82
344.999	-66.78
345.219	-5.75
345.439	-36.22
345.658	7888.89
345.878	477.08
346.098	-98.04
346.318	21.24
346.537	2695.45
346.757	171.43
346.977	43.09
347.196	10.77
347.416	4.56
347.636	51.69
347.855	-309.24
348.075	-91.67
348.294	-224.37
348.514	-187.96
348.733	71.82
348.953	210.53
349.172	-246.22
349.392	-189.76
349.611	-14.02
349.83	-33.97
350.05	-107.37
350.269	-49.01
350.488	32.38
350.707	621.84
350.927	34.84
351.146	28.9
351.365	22.19
351.584	-96.59
351.803	51.54
352.023	-10.94
352.242	8.71
352.461	-350.22
352.68	-122.31
352.899	-18.38
353.118	-231.61
353.337	-12.88
353.556	-158.19
353.775	-51.04
353.993	-110.91
354.212	46.24
354.431	-24.43
354.65	22.83
354.869	28.59
355.088	-12.22
355.306	89.19
355.525	-22.21
355.744	-46.56
355.962	93.55
356.181	485.14
356.4	-74.56
356.618	-1.3
356.837	-137.31
357.055	-61.48
357.274	34.81
357.492	-392.59
357.711	33.26
357.929	0.83
358.148	-228.89
358.366	20.47
358.585	216.29
358.803	23.1
359.021	432.74
359.24	3.83
359.458	-214.08
359.676	-3.3
359.894	8.37
360.113	-76.76
360.331	0.57
360.549	282.86
360.767	58.23
360.985	-442.54
361.203	-98.28
361.421	13.87
361.639	21.28
361.857	36.36
362.075	-52.45
362.293	42.79
362.511	-138.29
362.729	-79.89
362.947	-79.51
363.165	19.38
363.383	-31.84
363.601	28.58
363.819	-68.02
364.036	-74.19
364.254	232.23
364.472	-29.05
364.689	19.72
364.907	-6.78
365.125	-29.37
365.342	-260.12
365.56	29.82
365.778	-63.25
365.995	-313.75
366.213	-290.86
366.43	-33.78
366.648	-89.41
366.865	-37.5
367.083	35.52
367.3	-229.55
367.517	-111.36
367.735	-61.42
367.952	-61.31
368.17	1.35
368.387	-66.23
368.604	16.46
368.821	-70
369.039	16.67
369.256	-38.4
369.473	-5.07
369.69	-108.77
369.907	-4425
370.124	2931.82
370.341	105.88
370.558	-49.9
370.776	4.11
370.993	-47.6
371.21	-200
371.426	-65.92
371.643	-25.06
371.86	36.25
372.077	-70
372.294	-52.42
372.511	22.43
372.728	29.99
372.945	63.82
373.161	-0.72
373.378	-203.8
373.595	-65.98
373.811	27.74
374.028	-35.38
374.245	-47.36
374.461	-88.92
374.678	39.09
374.895	-47.06
375.111	28.6
375.328	74.62
375.544	1135.14
375.761	-57.84
375.977	43.67
376.194	73.6
376.41	-89.77
376.626	-28.99
376.843	-11.91
377.059	5.89
377.275	81.73
377.492	43
377.708	-0.97
377.924	-23.54
378.14	-50.88
378.357	15.95
378.573	-158.86
378.789	-28.85
379.005	-4.68
379.221	-112.55
379.437	-8.97
379.653	-9.85
379.869	29.76
380.085	-112.26
380.301	16.11
380.517	-5.8
380.733	-1.64
380.949	-73.09
381.165	-19.94
381.381	-43.41
381.597	25.27
381.813	7.36
382.028	-83.06
382.244	-31.57
382.46	-28.78
382.676	28.11
382.891	-93.88
383.107	-9.98
383.323	-22.86
383.538	-37.27
383.754	-27.96
383.969	37.12
384.185	73.83
384.4	-14.14
384.616	-40.5
384.831	4.16
385.047	-24.18
385.262	2.22
385.478	-5
385.693	-15.19
385.909	15.34
386.124	-50.44
386.339	5.4
386.554	-18.29
386.77	-6.56
386.985	-46.61
387.2	-33.72
387.415	-88.22
387.631	4.65
387.846	2.1
388.061	1.66
388.276	-58.53
388.491	-26.06
388.706	-7.66
388.921	-2.1
389.136	-12.79
389.351	5.68
389.566	-14.89
389.781	53.27
389.996	1.8
390.211	22.3
390.426	-14.74
390.641	-3.75
390.855	-48.5
391.07	-7.88
391.285	32.72
391.5	-32
391.714	-19.68
391.929	-2.3
392.144	23.77
392.358	-14.29
392.573	-30.95
392.788	-23.29
393.002	-10.34
393.217	10.95
393.431	-6.08
393.646	-1.29
393.86	-8.34
394.075	-8.71
394.289	5.57
394.504	-15.73
394.718	10.96
394.933	-8.76
395.147	7.04
395.361	6.21
395.576	-2.12
395.79	-30.41
396.004	-2.81
396.218	-7.64
396.432	-5.85
396.647	10.98
396.861	13.45
397.075	5.81
397.289	1.71
397.503	1.12
397.717	1.43
397.931	-6.53
398.145	-5.15
398.359	-9.6
398.573	-4.61
398.787	16.92
399.001	3.29
399.215	6.18
399.429	0.93
399.643	10.21
399.857	-13.75
400.07	-0.21
400.284	2.14
400.498	-12.44
400.712	4.59
400.925	-8.65
401.139	-7.02
401.353	-3.57
401.566	-1.45
401.78	4.15
401.994	-12.23
402.207	-1.6
402.421	-2.24
402.634	-7.23
402.848	4.15
403.061	-3.28
403.275	8.14
403.488	0.29
403.702	-4.79
403.915	3.35
404.128	-12.15
404.342	-0.66
404.555	-9.48
404.768	-0.76
404.982	3.82
405.195	-10.95
405.408	4.49
405.621	-2.08
405.835	5.78
406.048	-7.76
406.261	0.77
406.474	2.67
406.687	-9.18
406.9	4.88
407.113	-2.18
407.326	-1.2
407.539	2.33
407.752	3.87
407.965	1.06
408.178	-0.09
408.391	-0.66
408.604	-0.8
408.817	-7.88
409.029	-0.46
409.242	-1.05
409.455	-2.17
409.668	-2.54
409.881	4.71
410.093	-1.19
410.306	2.11
410.519	-3.26
410.731	-4.12
410.944	2.34
411.157	2.56
411.369	-3.68
411.582	-2.25
411.794	-0.91
412.007	-5.98
412.219	2.24
412.432	5.46
412.644	-0.26
412.857	-1.73
413.069	-0.61
413.281	3.69
413.494	-0.06
413.706	3.42
413.918	0.29
414.131	3.08
414.343	0.48
414.555	0.39
414.767	2.56
414.979	2.37
415.192	-1.14
415.404	1.7
415.616	-1.15
415.828	2.54
416.04	0.36
416.252	4.57
416.464	-2.05
416.676	3
416.888	0.96
417.1	-4.33
417.312	1.79
417.524	-0.76
417.736	-1.2
417.948	0.35
418.159	2.15
418.371	0.18
418.583	1.99
418.795	3.77
419.007	4.18
419.218	2.81
419.43	3.02
419.642	-0.19
419.853	1.15
420.065	4.31
420.276	2
420.488	4.61
420.7	-1.78
420.911	-0.37
421.123	0.8
421.334	2.11
421.546	1
421.757	0.96
421.969	2.09
422.18	1.11
422.391	-1.05
422.603	3.46
422.814	2.85
423.025	-0.49
423.237	3.31
423.448	4.15
423.659	5.27
423.87	-1.55
424.082	1.54
424.293	0.22
424.504	2.15
424.715	0.96
424.926	-0.67
425.137	1.56
425.348	2.25
425.559	1.75
425.77	3.45
425.981	4.36
426.192	5.68
426.403	0.14
426.614	-0.54
426.825	4.86
427.036	4.07
427.247	0.57
427.458	5.2
427.668	1.04
427.879	2.91
428.09	2.96
428.301	1.29
428.511	1.24
428.722	2.02
428.933	1.76
429.143	3.43
429.354	0.91
429.565	3.25
429.775	2.16
429.986	1.52
430.196	2.8
430.407	1.33
430.617	1.48
430.828	3.23
431.038	3.01
431.249	1.92
431.459	3.12
431.669	3.21
431.88	2.5
432.09	5
432.3	2.27
432.511	3.99
432.721	4.85
432.931	3.05
433.141	2.15
433.351	2.62
433.562	3.7
433.772	3.91
433.982	2.89
434.192	7.17
434.402	3.36
434.612	3.52
434.822	3.57
435.032	3.16
435.242	3.32
435.452	3.32
435.662	2.97
435.872	3.3
436.082	3.59
436.292	6
436.502	4.84
436.711	3.49
436.921	3.59
437.131	5.45
437.341	2.97
437.551	6.58
437.76	8.49
437.97	4.7
438.18	5.22
438.389	7.22
438.599	5.03
438.808	4.46
439.018	5.62
439.228	6.51
439.437	4.47
439.647	3.27
439.856	7.98
440.066	5.84
440.275	7.03
440.484	9.62
440.694	5.72
440.903	8.72
441.113	6.97
441.322	9.32
441.531	6.27
441.741	8.87
441.95	9.56
442.159	9.06
442.368	9.58
442.577	8.97
442.787	9.64
442.996	10.21
443.205	7.13
443.414	8.84
443.623	11.13
443.832	8.49
444.041	11.82
444.25	14.54
444.459	12.46
444.668	8.59
444.877	11.5
445.086	11.02
445.295	13.46
445.504	12.4
445.713	13.88
445.922	11.79
446.13	15.06
446.339	13.92
446.548	12.5
446.757	15.07
446.965	12.82
447.174	13.35
447.383	14.1
447.591	11.18
447.8	13.49
448.009	14.43
448.217	15.71
448.426	12.55
448.634	15.96
448.843	14.6
449.051	17.85
449.26	15.44
449.468	18.42
449.677	14.31
449.885	17.9
450.093	16.57
450.302	11.93
450.51	16.8
450.719	15.21
450.927	15.18
451.135	17.42
451.343	14.98
451.552	17.95
451.76	17.86
451.968	15.32
452.176	14.33
452.384	14.58
452.592	16.76
452.8	15.44
453.009	14.06
453.217	17.21
453.425	14.7
453.633	13.59
453.841	12.79
454.049	14.76
454.257	16.23
454.464	15.02
454.672	13.09
454.88	14.71
455.088	11.85
455.296	12.51
455.504	16.15
455.711	13.27
455.919	16.13
456.127	12.89
456.335	13.11
456.542	11.05
456.75	13.11
456.958	11.62
457.165	12.06
457.373	10.88
457.581	11.12
457.788	7.77
457.996	9
458.203	8.07
458.411	11.39
458.618	7.96
458.826	11.94
459.033	12.33
459.24	8.87
459.448	9
459.655	9.75
459.863	9.82
460.07	10.62
460.277	7.08
460.484	12.09
460.692	13.07
460.899	6.7
461.106	5.83
461.313	8.27
461.52	5.86
461.728	6.83
461.935	9.14
462.142	8.8
462.349	8.01
462.556	7.23
462.763	8.1
462.97	7.24
463.177	6.41
463.384	4.71
463.591	7.41
463.798	6.2
464.005	4.35
464.212	7.7
464.418	6.75
464.625	5.49
464.832	5
465.039	6.56
465.246	5.24
465.452	6.84
465.659	5.62
465.866	6.14
466.072	4.95
466.279	6.96
466.486	5.99
466.692	5.34
466.899	7.4
467.105	5.45
467.312	2.55
467.519	5.52
467.725	2.74
467.931	1.84
468.138	2.99
468.344	3.03
468.551	1.79
468.757	3.96
468.964	5.22
469.17	2.21
469.376	5.06
469.583	2.3
469.789	4.16
469.995	2.91
470.201	6.99
470.408	2.95
470.614	3.94
470.82	3.11
471.026	0.28
471.232	2.23
471.438	4.19
471.644	3.42
471.85	4.92
472.056	4.22
472.262	4.65
472.468	2.32
472.674	3.04
472.88	4.26
473.086	1.8
473.292	4.25
473.498	1.15
473.704	1.29
473.91	3.97
474.116	3.37
474.321	2.41
474.527	2.52
474.733	1.92
474.939	1.03
475.144	4.26
475.35	1.63
475.556	2.14
475.761	2.33
475.967	2.75
476.173	3.08
476.378	3.82
476.584	2.9
476.789	2.06
476.995	2.96
477.2	2.79
477.406	3.26
477.611	1.27
477.817	1.77
478.022	2.39
478.227	2.06
478.433	2.8
478.638	2.44
478.843	1.69
479.049	2.22
479.254	2.15
479.459	0.71
479.664	1.23
479.87	3.98
480.075	2.56
480.28	3.33
480.485	3.11
480.69	2.36
480.895	1.27
481.1	2.67
481.306	3.83
481.511	1.89
481.716	1.9
481.921	2.74
482.126	2.06
482.33	1.4
482.535	0.82
482.74	0.01
482.945	2.33
483.15	2.08
483.355	2.89
483.56	1.23
483.765	1.07
483.969	1.45
484.174	2.4
484.379	1.21
484.583	0.59
484.788	1.31
484.993	1.44
485.197	3.31
485.402	2.35
485.607	2.04
485.811	1.45
486.016	3.44
486.22	3.35
486.425	0.85
486.629	1.33
486.834	2.55
487.038	1.41
487.243	1.3
487.447	1.87
487.652	2.61
487.856	2.01
488.06	1.52
488.265	2.27
488.469	1.06
488.673	2.26
488.877	1.18
489.082	1.99
489.286	2.83
489.49	1.61
489.694	1.27
489.898	2.92
490.102	1.48
490.307	0.84
490.511	0.55
490.715	1.1
490.919	1.65
491.123	1.69
491.327	2.67
491.531	0.11
491.735	0.86
491.939	1.03
492.143	1.02
492.346	1.93
492.55	0.42
492.754	0.91
492.958	1.28
493.162	1.39
493.366	1.03
493.569	1.87
493.773	1.32
493.977	1.66
494.18	1.66
494.384	0.8
494.588	2.33
494.791	0.83
494.995	0.85
495.199	2.19
495.402	2.03
495.606	1.29
495.809	2.43
496.013	0.89
496.216	2.46
496.42	0.75
496.623	0.97
496.827	1.9
497.03	1.25
497.233	0.93
497.437	1
497.64	1.25
497.843	0.31
498.047	0.62
498.25	1.19
498.453	1.47
498.656	0.52
498.86	1.87
499.063	1.84
499.266	0.97
499.469	0.57
499.672	1.9
499.875	0.62
500.078	0.59
500.281	1.33
500.484	0.82
500.687	0.58
500.89	0.38
501.093	1.89
501.296	1.89
501.499	-0.01
501.702	2.06
501.905	0.81
502.108	1.85
502.311	1.07
502.514	0.97
502.716	1.81
502.919	1.68
503.122	0.66
503.325	2
503.527	0.57
503.73	1.64
503.933	0.49
504.135	0.7
504.338	1.45
504.541	1.17
504.743	2.17
504.946	1.5
505.148	0.95
505.351	0.93
505.553	1.56
505.756	1.93
505.958	1.77
506.161	1.52
506.363	1.28
506.565	1.36
506.768	1.83
506.97	1.18
507.172	0.09
507.375	0.69
507.577	0.91
507.779	1.91
507.982	0.71
508.184	1.22
508.386	0.8
508.588	0.63
508.79	1.49
508.993	1.96
509.195	1.76
509.397	0.86
509.599	0.74
509.801	0.65
510.003	1.01
510.205	1.64
510.407	1.51
510.609	0.98
510.811	1.17
511.013	1.38
511.215	1.05
511.417	1.09
511.618	0.71
511.82	0.89
512.022	1.39
512.224	1.68
512.426	0.63
512.627	1.14
512.829	1.13
513.031	1.51
513.233	1.84
513.434	1.78
513.636	1.04
513.838	1.53
514.039	1.32
514.241	1.13
514.442	1.43
514.644	1.38
514.845	1.18
515.047	1.77
515.248	1.42
515.45	1.55
515.651	1.2
515.853	1.46
516.054	1.37
516.256	0.3
516.457	2.58
516.658	1.06
516.86	1.07
517.061	1.13
517.262	1.53
517.463	1.9
517.665	1.67
517.866	1.86
518.067	1.54
518.268	1.42
518.469	1.23
518.67	0.87
518.872	1.14
519.073	1.06
519.274	1.45
519.475	1.37
519.676	1.01
519.877	1.43
520.078	1.97
520.279	1.53
520.48	1.19
520.681	1.41
520.881	1.23
521.082	1.73
521.283	1.31
521.484	1.16
521.685	1.26
521.886	1.56
522.086	1.13
522.287	1.39
522.488	1.74
522.689	1.04
522.889	1.81
523.09	1.12
523.291	1.71
523.491	1.55
523.692	1.75
523.892	1.6
524.093	1.51
524.294	1.33
524.494	1.09
524.695	1.71
524.895	1.51
525.096	1.63
525.296	1.75
525.496	1.46
525.697	1.26
525.897	1.37
526.098	1.53
526.298	1.97
526.498	1.81
526.699	1.6
526.899	1.82
527.099	1.47
527.299	1.92
527.499	1.46
527.7	1.8
527.9	1.64
528.1	1.53
528.3	1.86
528.5	1.99
528.7	1.21
528.9	1.58
529.1	1.79
529.3	1.48
529.5	1.88
529.7	1.58
529.9	2.03
530.1	1.55
530.3	1.24
530.5	1.81
530.7	1.92
530.9	1.64
531.1	1.91
531.3	2.01
531.499	1.31
531.699	1.9
531.899	1.27
532.099	1.85
532.298	1.55
532.498	2
532.698	1.64
532.897	1.6
533.097	1.28
533.297	1.59
533.496	1.75
533.696	1.5
533.895	1.79
534.095	1.79
534.294	1.98
534.494	1.62
534.693	1.55
534.893	1.68
535.092	1.86
535.292	1.89
535.491	1.86
535.69	1.24
535.89	1.64
536.089	1.84
536.288	1.92
536.488	1.72
536.687	2.17
536.886	1.57
537.085	2.1
537.285	1.55
537.484	1.55
537.683	1.65
537.882	1.49
538.081	1.8
538.28	1.64
538.479	1.65
538.678	1.66
538.877	2.06
539.076	1.86
539.275	1.85
539.474	1.81
539.673	1.9
539.872	1.63
540.071	2.24
540.27	2.4
540.469	2.2
540.668	2.32
540.867	2.06
541.065	2.38
541.264	2.03
541.463	1.73
541.662	1.92
541.861	2.24
542.059	1.98
542.258	2.12
542.457	2.35
542.655	1.8
542.854	1.96
543.052	2.26
543.251	2.13
543.45	2.26
543.648	2.25
543.847	2.54
544.045	2.16
544.244	2.03
544.442	2.17
544.641	2.07
544.839	2.23
545.037	2.5
545.236	2.39
545.434	2.5
545.632	2.2
545.831	2.5
546.029	2.04
546.227	2.3
546.426	2
546.624	2.23
546.822	2.53
547.02	2.04
547.218	2.51
547.417	1.95
547.615	2.32
547.813	2.58
548.011	2.34
548.209	2.74
548.407	2.8
548.605	2.58
548.803	2.19
549.001	2.73
549.199	2.51
549.397	2.76
549.595	2.71
549.793	2.94
549.991	2.53
550.189	2.37
550.387	2.89
550.584	2.65
550.782	2.59
550.98	2.65
551.178	2.87
551.376	3.13
551.573	2.85
551.771	2.57
551.969	2.87
552.166	2.49
552.364	2.46
552.562	2.53
552.759	2.86
552.957	2.71
553.154	2.78
553.352	2.79
553.55	2.79
553.747	2.71
553.945	3.17
554.142	2.93
554.339	3.03
554.537	3.08
554.734	2.92
554.932	3.05
555.129	2.95
555.326	3.07
555.524	2.93
555.721	3.46
555.918	3.54
556.116	2.93
556.313	3.52
556.51	3.49
556.707	3.25
556.904	2.72
557.102	3
557.299	3.28
557.496	3
557.693	3.62
557.89	3.6
558.087	3.17
558.284	2.99
558.481	3.33
558.678	3.11
558.875	3.63
559.072	3.35
559.269	3.36
559.466	3.41
559.663	3.65
559.86	3.47
560.057	3.79
560.254	3.21
560.45	3.62
560.647	3.23
560.844	3.54
561.041	3.86
561.237	3.63
561.434	3.63
561.631	4.01
561.828	3.87
562.024	3.84
562.221	3.53
562.418	4.12
562.614	4.01
562.811	4.05
563.007	3.92
563.204	3.93
563.4	3.83
563.597	4.17
563.793	4.07
563.99	4.06
564.186	4.1
564.383	4.33
564.579	4.34
564.775	4.39
564.972	4.52
565.168	4.53
565.365	4.47
565.561	4.35
565.757	4.45
565.953	4.44
566.15	4.44
566.346	4.97
566.542	4.6
566.738	4.68
566.934	4.97
567.131	4.67
567.327	5.12
567.523	4.8
567.719	4.63
567.915	4.92
568.111	5.13
568.307	5.04
568.503	4.88
568.699	4.64
568.895	4.89
569.091	5.34
569.287	5.19
569.483	5.05
569.679	5.21
569.875	5.06
570.07	4.92
570.266	5.28
570.462	5.21
570.658	5.33
570.854	5.1
571.049	5.13
571.245	5.35
571.441	5.76
571.636	5.4
571.832	5.47
572.028	5.48
572.223	5.63
572.419	5.4
572.615	5.65
572.81	5.64
573.006	5.49
573.201	5.76
573.397	5.99
573.592	6
573.788	5.77
573.983	6.04
574.179	5.97
574.374	6.22
574.569	6.43
574.765	6.22
574.96	6.03
575.156	6.09
575.351	5.87
575.546	6.24
575.741	6.1
575.937	6.35
576.132	6.64
576.327	6.67
576.522	6.21
576.718	6.73
576.913	6.51
577.108	6.53
577.303	6.63
577.498	6.43
577.693	7.01
577.888	6.86
578.083	7.25
578.278	6.82
578.473	7.05
578.668	7.07
578.863	6.86
579.058	6.87
579.253	6.93
579.448	7.3
579.643	7.57
579.838	7.4
580.033	7.6
580.227	7.39
580.422	7.52
580.617	7.88
580.812	7.62
581.006	7.58
581.201	7.75
581.396	7.53
581.591	7.77
581.785	8.26
581.98	8.19
582.175	8.22
582.369	8.65
582.564	8.87
582.758	8.87
582.953	8.63
583.147	8.94
583.342	8.69
583.536	8.38
583.731	8.6
583.925	9.09
584.12	8.96
584.314	9.2
584.509	8.78
584.703	9.14
584.897	9.02
585.092	8.81
585.286	9.25
585.48	9.14
585.674	9.23
585.869	9.19
586.063	9.73
586.257	9.44
586.451	9.58
586.646	9.69
586.84	9.42
587.034	9.39
587.228	9.25
587.422	9.76
587.616	9.67
587.81	9.81
588.004	9.53
588.198	9.49
588.392	9.93
588.586	10.1
588.78	10.44
588.974	10.19
589.168	10.68
589.362	10.32
589.556	10.48
589.75	10.56
589.944	10.36
590.137	10.4
590.331	10.85
590.525	10.57
590.719	10.71
590.913	11.14
591.106	11.23
591.3	10.72
591.494	11.5
591.687	11.07
591.881	10.98
592.075	11.45
592.268	11.53
592.462	11.45
592.655	10.96
592.849	11.23
593.043	11.8
593.236	11.51
593.43	11.62
593.623	11.38
593.817	11.66
594.01	11.58
594.203	12.18
594.397	12.23
594.59	12.23
594.784	12.41
594.977	12.63
595.17	13.05
595.364	12.63
595.557	12.91
595.75	12.43
595.943	12.92
596.137	12.48
596.33	12.4
596.523	12.95
596.716	13.05
596.909	13.21
597.102	13.31
597.296	13.22
597.489	13.3
597.682	13.34
597.875	13.16
598.068	12.87
598.261	12.58
598.454	12.91
598.647	12.73
598.84	12.94
599.033	13.45
599.226	12.96
599.419	13.66
599.611	13.43
599.804	13.67
599.997	13.76
600.19	13.89
600.383	14.19
600.576	14.38
600.768	13.8
600.961	13.96
601.154	13.61
601.347	14.06
601.539	14.4
601.732	14.23
601.925	14.57
602.117	14.68
602.31	14.54
602.502	14.52
602.695	14.28
602.888	14.43
603.08	14.32
603.273	14.48
603.465	14.71
603.658	15.05
603.85	14.87
604.043	14.61
604.235	14.3
604.427	14.44
604.62	14.7
604.812	14.7
605.004	14.85
605.197	14.89
605.389	14.79
605.581	15.15
605.774	15.04
605.966	15.22
606.158	15.56
606.35	15.45
606.543	15.39
606.735	15.63
606.927	15.32
607.119	16.06
607.311	16
607.503	16.04
607.695	16.11
607.887	15.7
608.079	15.67
608.271	16
608.463	16.13
608.655	16.45
608.847	16.54
609.039	16.27
609.231	16.41
609.423	16.19
609.615	16.58
609.807	16.34
609.999	16.28
610.191	16.76
610.382	16.68
610.574	16.73
610.766	16.51
610.958	16.64
611.15	16.33
611.341	16.44
611.533	16.64
611.725	16.36
611.916	16.82
612.108	16.75
612.3	16.61
612.491	16.5
612.683	16.48
612.874	16.79
613.066	16.98
613.257	16.94
613.449	16.75
613.64	16.28
613.832	16.03
614.023	16.89
614.215	16.95
614.406	16.96
614.598	16.83
614.789	17.46
614.98	17.46
615.172	17.34
615.363	17.2
615.554	16.93
615.746	17.1
615.937	17.24
616.128	17.52
616.319	17.27
616.511	17.18
616.702	17.32
616.893	17.59
617.084	17.62
617.275	17.61
617.466	17.26
617.658	17.92
617.849	17.5
618.04	17.2
618.231	17.27
618.422	17.28
618.613	17.42
618.804	17.25
618.995	17.1
619.186	16.8
619.377	17.05
619.568	16.88
619.758	17.09
619.949	16.62
620.14	16.94
620.331	17.28
620.522	17.25
620.713	17.46
620.903	17.71
621.094	17.29
621.285	17.54
621.476	17.14
621.666	17.4
621.857	17.53
622.048	17.8
622.238	17.76
622.429	18.79
622.62	18.64
622.81	18.45
623.001	18.26
623.191	18.08
623.382	17.77
623.572	17.6
623.763	17.85
623.953	17.95
624.144	17.61
624.334	17.63
624.525	18
624.715	18.02
624.905	17.92
625.096	18.15
625.286	17.85
625.477	18.13
625.667	17.96
625.857	17.63
626.047	17.53
626.238	17.83
626.428	18.01
626.618	18
626.808	17.81
626.999	18.02
627.189	17.71
627.379	17.34
627.569	17.78
627.759	17.24
627.949	17.98
628.139	17.11
628.329	18
628.519	18.23
628.709	17.69
628.899	17.68
629.089	17.14
629.279	17.48
629.469	17.23
629.659	17.25
629.849	17.57
630.039	17.2
630.229	16.9
630.419	17.06
630.609	17.58
630.798	17.64
630.988	17.5
631.178	17.02
631.368	17.33
631.557	17.66
631.747	17.83
631.937	17.52
632.127	18.21
632.316	17.9
632.506	18.23
632.696	17.95
632.885	18.27
633.075	18.61
633.264	18.08
633.454	18.24
633.643	18.43
633.833	18.26
634.022	17.82
634.212	17.83
634.401	17.77
634.591	17.69
634.78	17.87
634.97	17.87
635.159	18.12
635.348	18.38
635.538	18.6
635.727	18.25
635.916	18.14
636.106	18.41
636.295	17.78
636.484	17.31
636.674	17.32
636.863	17.74
637.052	17.21
637.241	17.31
637.43	17.37
637.619	16.87
637.809	17.24
637.998	18.01
638.187	18.13
638.376	18.15
638.565	18.02
638.754	18.32
638.943	17.95
639.132	17.3
639.321	17.24
639.51	17.04
639.699	16.63
639.888	16.75
640.077	16.97
640.266	16.9
640.455	17.06
640.643	16.67
640.832	17.14
641.021	16.68
641.21	17.11
641.399	17.2
641.587	17.47
641.776	17.76
641.965	17.43
642.154	17.75
642.342	17.3
642.531	17.6
642.72	17.53
642.908	17.5
643.097	17.54
643.286	17.94
643.474	17.39
643.663	17.2
643.851	17.25
644.04	17.1
644.228	17.17
644.417	17.49
644.605	17.17
644.794	17.48
644.982	17.74
645.171	17.73
645.359	18.02
645.547	17.97
645.736	17.23
645.924	16.99
646.112	16.85
646.301	16.07
646.489	16.69
646.677	16.59
646.866	16.62
647.054	16.74
647.242	16.55
647.43	16.77
647.618	17.2
647.807	16.85
647.995	16.55
648.183	16.78
648.371	16.61
648.559	16.76
648.747	16.78
648.935	17.43
649.123	16.86
649.311	17.13
649.499	16.98
649.687	17.11
649.875	16.22
650.063	17.02
650.251	16.46
650.439	16.71
650.627	16.88
650.815	16.87
651.003	16.9
651.191	16.05
651.378	16.79
651.566	16.83
651.754	16.91
651.942	16.57
652.13	16.61
652.317	16.95
652.505	16.69
652.693	16.63
652.88	16.66
653.068	16.12
653.256	16.67
653.443	16.46
653.631	16.64
653.819	15.97
654.006	16.28
654.194	16.54
654.381	16.41
654.569	16.4
654.756	16.18
654.944	16.56
655.131	16.91
655.319	17.17
655.506	16.93
655.693	16.89
655.881	16.74
656.068	16.77
656.256	17.19
656.443	16.8
656.63	17.27
656.818	16.95
657.005	16.81
657.192	17.2
657.379	17.13
657.567	17.22
657.754	17.33
657.941	17.01
658.128	16.8
658.315	16.69
658.502	16.75
658.69	16.44
658.877	16.64
659.064	16.59
659.251	16.58
659.438	16.55
659.625	16.64
659.812	16.38
659.999	16.61
660.186	16.4
660.373	16.54
660.56	16.69
660.747	16.64
660.934	17.08
661.121	17.11
661.308	17.01
661.494	16.78
661.681	16.76
661.868	16.87
662.055	16.39
662.242	16.62
662.428	16.67
662.615	16.96
662.802	17.21
662.989	17.11
663.175	17.5
663.362	17.45
663.549	17.36
663.735	17.21
663.922	17.22
664.109	17.32
664.295	17.14
664.482	16.9
664.668	16.8
664.855	16.66
665.041	16.93
665.228	16.85
665.414	17.22
665.601	16.81
665.787	16.93
665.974	16.57
666.16	16.03
666.347	15.75
666.533	16.05
666.719	16.38
666.906	16.13
667.092	16.73
667.278	16.61
667.465	16.76
667.651	16.47
667.837	16.61
668.023	17.19
668.21	17.39
668.396	16.64
668.582	16.53
668.768	16.79
668.954	16.72
669.14	17.14
669.327	17.09
669.513	17.44
669.699	17.1
669.885	17.37
670.071	17.49
670.257	17.24
670.443	17.25
670.629	16.92
670.815	17.2
671.001	16.73
671.187	16.96
671.373	16.64
671.559	16.65
671.744	17.27
671.93	17.06
672.116	17.25
672.302	17.13
672.488	17.08
672.674	17.88
672.859	17.64
673.045	17.17
673.231	17.14
673.417	16.96
673.602	16.76
673.788	17.28
673.974	17
674.159	16.81
674.345	16.77
674.531	17.11
674.716	16.83
674.902	16.89
675.087	17.23
675.273	17.42
675.459	17.84
675.644	17.73
675.83	17.28
676.015	17.4
676.2	17.13
676.386	16.84
676.571	16.86
676.757	16.7
676.942	16.81
677.128	16.81
677.313	16.26
677.498	16.37
677.684	16.6
677.869	16.67
678.054	17.59
678.24	17.13
678.425	17.77
678.61	17.52
678.795	18.06
678.98	17.64
679.166	17.36
679.351	17.15
679.536	17.01
679.721	17.07
679.906	17.56
680.091	17.02
680.276	16.98
680.461	16.58
680.647	17.12
680.832	17.15
681.017	17.4
681.202	17.57
681.387	17.33
681.572	17.64
681.756	17.29
681.941	17.15
682.126	16.71
682.311	16.48
682.496	16.91
682.681	16.79
682.866	17.03
683.051	17.12
683.235	17.14
683.42	17.49
683.605	17.69
683.79	17.89
683.974	17.36
684.159	16.84
684.344	16.86
684.529	17.1
684.713	16.99
684.898	16.83
685.083	16.8
685.267	16.58
685.452	16.82
685.636	16.92
685.821	17.28
686.005	16.97
686.19	17.4
686.375	17.31
686.559	17.45
686.744	16.76
686.928	16.99
687.112	16.97
687.297	16.77
687.481	16.98
687.666	16.95
687.85	17.1
688.034	17.15
688.219	16.82
688.403	16.4
688.587	16.93
688.772	16.55
688.956	16.64
689.14	16.97
689.324	16.88
689.509	16.59
689.693	16.51
689.877	16.31
690.061	16.72
690.245	16.65
690.43	16.46
690.614	17
690.798	16.47
690.982	16.61
691.166	16.61
691.35	16.38
691.534	16.53
691.718	16.48
691.902	16.37
692.086	16.41
692.27	16.59
692.454	17.09
692.638	17.13
692.822	17.19
693.006	16.95
693.19	16.89
693.373	16.32
693.557	16.14
693.741	16.59
693.925	16.42
694.109	16.11
694.293	16.62
694.476	17.05
694.66	17.06
694.844	16.91
695.027	17.46
695.211	16.71
695.395	17.13
695.578	17.14
695.762	16.42
695.946	16.73
696.129	16.29
696.313	16.34
696.497	16.18
696.68	16.11
696.864	16.33
697.047	16.65
697.231	16.23
697.414	16.12
697.598	15.43
697.781	15.5
697.965	15.6
698.148	15.53
698.331	15.7
698.515	15.42
698.698	15.59
698.881	15.35
699.065	16.07
699.248	16.1
699.431	16.28
699.615	16.04
699.798	15.49
699.981	15.89
700.165	15.99
700.348	15.35
700.531	15.74
700.714	15.83
700.897	15.25
701.08	15.61
701.264	15.7
701.447	15.91
701.63	15.86
701.813	16.2
701.996	16.06
702.179	16.31
702.362	16.39
702.545	16.35
702.728	16.11
702.911	16.04
703.094	16.52
703.277	16.45
703.46	16.63
703.643	16.26
703.826	16.17
704.009	15.55
704.191	15.87
704.374	15.68
704.557	15.31
704.74	15.85
704.923	15.65
705.106	15.35
705.288	15.36
705.471	15.04
705.654	15.56
705.837	15.68
706.019	15.64
706.202	15.99
706.385	16.17
706.567	15.51
706.75	15.49
706.932	15.56
707.115	14.69
707.298	14.71
707.48	14.67
707.663	14.97
707.845	15.5
708.028	15.26
708.21	15.58
708.393	15.61
708.575	15.76
708.758	15.36
708.94	15.56
709.123	15.8
709.305	15.57
709.487	15.41
709.67	15.89
709.852	15.55
710.034	15.48
710.217	14.96
710.399	15.36
710.581	15.57
710.764	15.63
710.946	15.35
711.128	15.2
711.31	15.25
711.492	15.23
711.675	14.8
711.857	15.07
712.039	15.33
712.221	15.07
712.403	15.34
712.585	14.95
712.767	14.95
712.949	15.38
713.131	15.81
713.314	15.34
713.496	15.14
713.678	15.09
713.86	15.11
714.041	15.28
714.223	15.35
714.405	15.14
714.587	15.62
714.769	15.22
714.951	15.13
715.133	15.07
715.315	15.27
715.497	15.24
715.678	15.16
715.86	15.28
716.042	14.98
716.224	15.29
716.406	14.91
716.587	15.37
716.769	14.75
716.951	14.99
717.132	15.23
717.314	14.99
717.496	15.36
717.677	14.82
717.859	14.74
718.041	14.78
718.222	13.82
718.404	14.11
718.585	13.96
718.767	14.24
718.948	14.25
719.13	14.8
719.311	14.43
719.493	14.62
719.674	14.88
719.856	14.58
720.037	14.37
720.219	14.12
720.4	14.67
720.581	14.03
720.763	14.05
720.944	14.72
721.125	14.46
721.307	14.46
721.488	15.04
721.669	14.42
721.85	14.17
722.032	14.51
722.213	14.34
722.394	13.83
722.575	14.32
722.756	14.17
722.938	13.91
723.119	13.87
723.3	14
723.481	13.92
723.662	13.58
723.843	13.78
724.024	13.57
724.205	13.83
724.386	14
724.567	13.87
724.748	14.17
724.929	14.5
725.11	14.24
725.291	14.54
725.472	15.04
725.653	14.6
725.834	14.14
726.015	14.32
726.196	14.2
726.377	14.17
726.557	14.28
726.738	14.26
726.919	14.5
727.1	14.39
727.281	14.08
727.461	14.2
727.642	13.72
727.823	13.42
728.004	13.8
728.184	14.07
728.365	13.8
728.546	13.78
728.726	13.58
728.907	13.6
729.087	13.54
729.268	13.52
729.449	13.83
729.629	13.55
729.81	13.24
729.99	13.44
730.171	12.66
730.351	12.68
730.532	13.36
730.712	13.08
730.893	12.88
731.073	12.89
731.253	12.74
731.434	13.04
731.614	12.86
731.795	12.9
731.975	12.85
732.155	13.46
732.336	13.44
732.516	13.42
732.696	13.1
732.876	13.12
733.057	13.49
733.237	12.56
733.417	13.15
733.597	13.48
733.778	13.09
733.958	12.89
734.138	12.73
734.318	12.7
734.498	13.08
734.678	12.46
734.858	12.94
735.038	12.91
735.218	13.77
735.398	13.02
735.579	13.37
735.759	13.52
735.939	13
736.119	13.95
736.298	13.67
736.478	13.58
736.658	13.22
736.838	13.58
737.018	13.21
737.198	13.33
737.378	13.24
737.558	13.17
737.738	12.74
737.917	13.08
738.097	12.57
738.277	13.3
738.457	12.88
738.637	12.46
738.816	12.89
738.996	12.59
739.176	12.72
739.355	12.81
739.535	13.17
739.715	12.84
739.894	12.26
740.074	12.22
740.254	12.73
740.433	12.05
740.613	11.72
740.792	12.73
740.972	12.38
741.151	11.84
741.331	12.72
741.51	13
741.69	12.77
741.869	12.52
742.049	12.9
742.228	12.58
742.408	12.51
742.587	12.38
742.766	12.4
742.946	12.58
743.125	12.73
743.305	12.52
743.484	12.45
743.663	12.25
743.842	12.58
744.022	12.58
744.201	12.95
744.38	12.83
744.56	12.53
744.739	12.26
744.918	12.65
745.097	12.48
745.276	12.4
745.455	12.19
745.635	12.44
745.814	12.64
745.993	13.12
746.172	12.41
746.351	13.12
746.53	13.8
746.709	12.64
746.888	13.13
747.067	12.5
747.246	12.77
747.425	12.59
747.604	12.85
747.783	12.74
747.962	12.9
748.141	12.93
748.32	12.48
748.499	12.98
748.677	12.52
748.856	12.1
749.035	12.88
749.214	13.4
749.393	12.98
749.572	11.83
749.75	12.29
749.929	12.48
750.108	12.32
750.287	12.51
750.465	11.46
750.644	12.01
750.823	12.05
751.001	11.61
751.18	12.12
751.359	11.83
751.537	11.92
751.716	11.85
751.894	11.41
752.073	11.8
752.251	11.36
752.43	11.18
752.609	11.89
752.787	11.52
752.966	11.7
753.144	11.85
753.322	10.91
753.501	11.09
753.679	11.04
753.858	11.19
754.036	10.79
754.215	10.38
754.393	10.78
754.571	10.44
754.75	11.11
754.928	10.91
755.106	11
755.284	11.84
755.463	11.83
755.641	11.77
755.819	12.17
755.997	12.22
756.176	11.26
756.354	11.33
756.532	12
756.71	11.78
756.888	11.73
757.066	11.76
757.245	11.47
757.423	10.8
757.601	10.79
757.779	10.46
757.957	10.6
758.135	10.97
758.313	11.31
758.491	11.16
758.669	11.01
758.847	11.34
759.025	11.25
759.203	11.38
759.381	11.35
759.559	11.11
759.737	11.23
759.915	11.24
760.092	10.67
760.27	11.15
760.448	11.19
760.626	10.84
760.804	11.71
760.981	11.19
761.159	10.98
761.337	11.8
761.515	11.25
761.692	10.77
761.87	11.19
762.048	10.95
762.226	10.93
762.403	10.74
762.581	10.74
762.759	10.63
762.936	10.75
763.114	12.01
763.291	11.47
763.469	10.94
763.647	11.27
763.824	11.01
764.002	11.16
764.179	11.18
764.357	11.58
764.534	10.64
764.712	10.29
764.889	10.93
765.066	10.7
765.244	9.23
765.421	10.08
765.599	10.65
765.776	11.15
765.953	10.45
766.131	11.13
766.308	10.55
766.485	11.02
766.663	10.85
766.84	10.61
767.017	9.85
767.194	10.68
767.372	9.73
767.549	11.1
767.726	11.44
767.903	9.99
768.081	10.04
768.258	10.71
768.435	10.98
768.612	10.79
768.789	9.89
768.966	9.45
769.143	11.29
769.32	10.67
769.497	10.86
769.674	10.46
769.851	10.41
770.028	10.26
770.205	10.89
770.382	10.28
770.559	10.6
770.736	10.05
770.913	10.84
771.09	11.11
771.267	9.96
771.444	10.41
771.621	9.9
771.798	9.41
771.975	10.48
772.151	10.35
772.328	11.36
772.505	9.6
772.682	9.88
772.859	9.7
773.035	10.17
773.212	9.84
773.389	9.75
773.565	9.96
773.742	10.33
773.919	9.5
774.096	10.41
774.272	10.2
774.449	9.28
774.625	9.35
774.802	10.68
774.979	10.51
775.155	10.19
775.332	10.23
775.508	10.96
775.685	10.53
775.861	10.69
776.038	10.45
776.214	8.95
776.391	10.47
776.567	9.3
776.744	11.09
776.92	10.17
777.096	9.19
777.273	9.92
777.449	10.19
777.626	9.27
777.802	9.97
777.978	9.92
778.155	9.26
778.331	9.27
778.507	9.18
778.683	8.49
778.86	9.29
779.036	10.18
779.212	10.04
779.388	9.35
779.565	9.38
779.741	10.66
779.917	10.22
780.093	9.37
780.269	8.01
780.445	8.53
780.621	10.48
780.797	9.22
780.974	9.27
781.15	8.86
781.326	9.64
781.502	8.88
781.678	10.36
781.854	10.24
782.03	9.12
782.206	9.73
782.382	9.69
782.558	10.86
782.733	8.82
782.909	9.47
783.085	9.37
783.261	9.65
783.437	9.45
783.613	8.02
783.789	8.04
783.965	9.3
784.14	9.65
784.316	9.31
784.492	9.07
784.668	9.29
784.843	9.55
785.019	10.56
785.195	7.11
785.371	9.38
785.546	9.28
785.722	9.55
785.898	7.17
786.073	9.21
786.249	10.03
786.424	10.2
786.6	9.27
786.776	8.5
786.951	9.65
787.127	10.11
787.302	8.86
787.478	7.88
787.653	9.16
787.829	8.99
788.004	8.4
788.18	9.29
788.355	9.81
788.531	8.44
788.706	9.99
788.881	7.21
789.057	8.53
789.232	8.32
789.408	10.2
789.583	9.95
789.758	8.5
789.934	6.88
790.109	8.68
790.284	10.13
790.459	9.56
790.635	8.54
790.81	9.75
790.985	8.37
791.16	6.26
791.336	8.52
791.511	8.43
791.686	9.75
791.861	8.69
792.036	11.15
792.211	7.71
792.387	9.24
792.562	8.27
792.737	8.52
792.912	5.5
793.087	8.75
793.262	7.17
793.437	8.36
793.612	8.82
793.787	8.44
793.962	8.74
794.137	9.06
794.312	7.12
794.487	10.71
794.662	8.41
794.837	7.78
795.011	9.06
795.186	10.65
795.361	7.42
795.536	10.09
795.711	7.68
795.886	8.75
796.06	6.31
796.235	9.95
796.41	7.44
796.585	7.47
796.76	8.59
796.934	8.47
797.109	9.52
797.284	7.52
797.458	6.41
797.633	10.15
797.808	6.84
797.982	9.9
798.157	8.7
798.332	8
798.506	7.81
798.681	6.11
798.855	7.99
799.03	10.42
799.204	9.32
799.379	5.48
799.553	9.9
799.728	3.9
799.902	7.17
800.077	9.3
800.251	7.79
800.426	5.71
800.6	11
800.775	7.81
800.949	9.2
801.123	7.9
801.298	8.45
801.472	10.38
801.647	9.06
801.821	7.14
801.995	5.99
802.169	10.49
802.344	7.7
802.518	10.41
802.692	5.88
802.867	11.61
803.041	7.75
803.215	8.51
803.389	7.8
803.563	5.71
803.737	8.29
803.912	7.95
804.086	10.13
804.26	10.56
804.434	5.59
804.608	6.79
804.782	10.28
804.956	12.87
805.13	7.97
805.304	7.14
805.478	8.05
805.652	9.63
805.826	12.37
806	9.51
806.174	8.32
806.348	9.39
806.522	6.73
806.696	8.22
806.87	4.91
807.044	10.01
807.218	9.51
807.392	11.73
807.566	4.81
807.739	8.01
807.913	5.58
808.087	8.35
808.261	5.48
808.435	7.46
808.608	5.81
808.782	2.32
808.956	8.37
809.13	3.8
809.303	11.33
809.477	7.62
809.651	12.94
809.824	7.23
809.998	11.01
810.172	9.44
810.345	10
810.519	7.69
810.692	6.88
810.866	8.55
811.04	9.14
811.213	8.33
811.387	5.15
811.56	8.01
811.734	7.28
811.907	8.26
812.081	4.05
812.254	9.21
812.428	6.31
812.601	8.59
812.774	9.11
812.948	4.65
813.121	9.57
813.295	8.92
813.468	9.26
813.641	3.89
813.815	6.95
813.988	7.26
814.161	10.75
814.335	10.08
814.508	7.55
814.681	5.93
814.854	5.52
815.028	10.06
815.201	6.49
815.374	6.13
815.547	8.12
815.72	9.3
815.894	7.8
816.067	8.84
816.24	8.96
816.413	7.75
816.586	8.71
816.759	11.84
816.932	7.07
817.105	8.61
817.278	8.1
817.452	3.06
817.625	8.31
817.798	9.36
817.971	8.61
818.144	7.45
818.317	10.43
818.49	8.61
818.662	9.78
818.835	10.76
819.008	5.4
819.181	11.24
819.354	6.44
819.527	11.92
819.7	6.04
819.873	8.2
820.046	8.49
820.218	10.27
820.391	9.04
820.564	5.66
820.737	6.98
820.909	9.88
821.082	2.2
821.255	6.4
821.428	10.13
821.6	8.11
821.773	5.57
821.946	5.7
822.118	4.73
822.291	8.65
822.464	3.08
822.636	10.07
822.809	5.9
822.982	7.58
823.154	12.74
823.327	7.41
823.499	5.86
823.672	8.22
823.844	5.56
824.017	9.4
824.189	8.42
824.362	7.04
824.534	8.78
824.707	5.81
824.879	8.18
825.052	8.3
825.224	7.28
825.396	7.65
825.569	7.94
825.741	6.48
825.914	7.12
826.086	6.79
826.258	8.31
826.431	9.31
826.603	5.64
826.775	12.27
826.947	7.14
827.12	8.01
827.292	8.73
827.464	5.06
827.636	8.46
827.809	6.71
827.981	11.25
828.153	8.55
828.325	5.05
828.497	4.81
828.669	6.38
828.842	1.88
829.014	8.64
829.186	6.71
829.358	5.95
829.53	8.81
829.702	8.68
829.874	9.91
830.046	7.96
830.218	11.64
830.39	2.53
830.562	11.37
830.734	9.03
830.906	4.28
831.078	10.19
831.25	11.74
831.422	3.82
831.594	5.74
831.766	9.17
831.937	5.81
832.109	8.77
832.281	9.06
832.453	7.36
832.625	5.07
832.797	9.37
832.968	9.57
833.14	7.01
833.312	8.59
833.484	5.73
833.655	10.22
833.827	2.95
833.999	8.28
834.171	7.63
834.342	10.27
834.514	5.96
834.686	11.04
834.857	6.6
835.029	2.85
835.2	10.6
835.372	8.4
835.544	8.52
835.715	8.14
835.887	6.71
836.058	3.72
836.23	9.1
836.401	9.15
836.573	7.86
836.744	4.72
836.916	11.76
837.087	4.56
837.259	6.44
837.43	8.94
837.602	8.74
837.773	7.71
837.945	7.9
838.116	5.65
838.287	5.95
838.459	7.06
838.63	6.22
838.801	7.62
838.973	8.82
839.144	7.81
839.315	10.07
839.487	5.32
839.658	9.59
839.829	11.25
840	8.73
840.172	7.47
840.343	9.04
840.514	11.25
840.685	10.01
840.856	8.56
841.027	10.36
841.199	12.16
841.37	9.15
841.541	5.47
841.712	10.51
841.883	8.85
842.054	3.65
842.225	11.85
842.396	8.91
842.567	4.31
842.738	5.34
842.909	12.07
843.08	11.3
843.251	7.88
843.422	9.08
843.593	8.76
843.764	5.76
843.935	8.24
844.106	10.51
844.277	8.36
844.448	10.94
844.619	6.2
844.79	8.29
844.96	9.96
845.131	7.02
845.302	7.25
845.473	8.12
845.644	8.86
845.814	5.92
845.985	9.49
846.156	6.1
846.327	4.74
846.497	5.44
846.668	5.71
846.839	5.69
847.01	7.6
847.18	2.75
847.351	5.92
847.522	5.75
847.692	7.06
847.863	6.51
848.033	10.64
848.204	8.35
848.375	2.21
848.545	11.59
848.716	9.61
848.886	10.43
849.057	6.26
849.227	11.38
849.398	3.99
849.568	5.61
849.739	8.14
849.909	6.92
850.08	9.74
850.25	9.44
850.421	4.19
850.591	9.18
850.761	3.49
850.932	5.37
851.102	3.32
851.272	11.45
851.443	11.8
851.613	5.04
851.783	9.27
851.954	3.98
852.124	6.3
852.294	9.08
852.465	6.96
852.635	6.48
852.805	3.7
852.975	1.44
853.145	6.13
853.316	7.45
853.486	1.91
853.656	9.29
853.826	7.07
853.996	7.21
854.166	10.05
854.337	5.61
854.507	3.75
854.677	9.36
854.847	7.72
855.017	1.93
855.187	12.62
855.357	-0.23
855.527	1.89
855.697	6.69
855.867	7.54
856.037	1.85
856.207	9.49
856.377	11.48
856.547	4.38
856.717	10.84
856.887	9.47
857.057	6.79
857.227	15.61
857.397	13.53
857.566	7.54
857.736	3.1
857.906	6.99
858.076	4.11
858.246	4.86
858.416	5.93
858.585	5.5
858.755	12.24
858.925	5.19
859.095	8.34
859.264	9.47
859.434	3.84
859.604	0.9
859.774	0.4
859.943	12.67
860.113	6.93
860.283	6.49
860.452	11.28
860.622	6.56
860.791	9.04
860.961	10.81
861.131	6.26
861.3	13.82
861.47	2.39
861.639	9.68
861.809	12.43
861.978	4.12
862.148	6.88
862.318	11.04
862.487	4.84
862.657	6.07
862.826	6.95
862.995	6.83
863.165	17.25
863.334	7.19
863.504	6.33
863.673	8.74
863.843	8.24
864.012	9.65
864.181	6.84
864.351	5.77
864.52	-0.12
864.689	-2.67
864.859	1.7
865.028	7.52
865.197	3.04
865.366	12.22
865.536	6.24
865.705	18.44
865.874	4.27
866.043	3.68
866.213	12.28
866.382	3.47
866.551	-4.56
866.72	17.54
866.889	5.44
867.059	-1.22
867.228	2.45
867.397	1.94
867.566	-2.68
867.735	17.7
867.904	4.78
868.073	-1.28
868.242	7.87
868.411	1.79
868.58	5.11
868.749	-0.81
868.918	2.95
869.087	6.99
869.256	1.67
869.425	9.76
869.594	4.89
869.763	2.13
869.932	13.52
870.101	9.78
870.27	-3.86
870.439	2.31
870.608	1.81
870.777	2.46
870.945	5.48
871.114	17.82
871.283	2.82
871.452	5.73
871.621	8.21
871.789	4.78
871.958	9.79
872.127	7.54
872.296	4.18
872.464	13.79
872.633	9.13
872.802	11.76
872.971	12.76
873.139	8.55
873.308	12.55
873.477	-1.9
873.645	-1.87
873.814	1.36
873.983	-6.62
874.151	5.69
874.32	8.76
874.488	10.04
874.657	4.33
874.826	12.58
874.994	19.54
875.163	-7.33
875.331	11.67
875.5	14.63
875.668	13.78
875.837	10.04
876.005	7.57
876.174	6.89
876.342	3.3
876.51	6.48
876.679	14.73
876.847	12.63
877.016	-7.46
877.184	0.67
877.352	-1.86
877.521	16.04
877.689	2.87
877.857	0.38
878.026	11.21
878.194	22.89
878.362	-0.97
878.531	1.36
878.699	5.03
878.867	8.87
879.036	5.52
879.204	5.22
879.372	12.73
879.54	-4.77
879.708	23.28
879.877	21.4
880.045	12.75
880.213	0.44
880.381	4.04
880.549	9.04
880.717	7.21
880.885	2.37
881.054	-1.07
881.222	7.73
881.39	0.6
881.558	6.62
881.726	5.92
881.894	-1.06
882.062	12.3
882.23	9.47
882.398	4.31
882.566	-2.62
882.734	5.66
882.902	7.01
883.07	6.14
883.238	3.73
883.406	-0.19
883.574	-6.35
883.741	1.25
883.909	-1.82
884.077	15.01
884.245	2.08
884.413	5.19
884.581	1.19
884.749	11.67
884.916	15.96
885.084	26.72
885.252	1.96
885.42	2.89
885.587	25.95
885.755	-1.59
885.923	-4.22
886.091	11.47
886.258	7.14
886.426	7.1
886.594	6.34
886.761	0.47
886.929	10.17
887.097	1.56
887.264	11.8
887.432	7.97
887.6	2.28
887.767	10.84
887.935	14.63
888.102	15.46
888.27	6.79
888.438	11.32
888.605	-4.81
888.773	9.23
888.94	9.2
889.108	-2.11
889.275	-3.57
889.443	10.02
889.61	9.23
889.778	6.1
889.945	-13.83
890.112	15.21
890.28	6.27
890.447	11.94
890.615	8.59
890.782	1.54
890.949	-5.67
891.117	-1.36
891.284	1.55
891.452	-10.72
891.619	10.36
891.786	9.92
891.953	10.91
892.121	8.01
892.288	13.72
892.455	15.11
892.623	16.48
892.79	-2.87
892.957	6.27
893.124	12.33
893.291	2.65
893.459	15.34
893.626	4.76
893.793	-6.24
893.96	10.02
894.127	1.15
894.294	5.96
894.461	-3.71
894.629	12.98
894.796	12.49
894.963	-3.31
895.13	22.98
895.297	3.42
895.464	19.65
895.631	1.43
895.798	18.54
895.965	6.11
896.132	-1.33
896.299	15.99
896.466	21.85
896.633	12.04
896.8	0.91
896.967	4.62
897.134	3.33
897.301	-13.47
897.467	19.68
897.634	0.13
897.801	0.58
897.968	5.49
898.135	-8.4
898.302	-10.25
898.469	14.14
898.635	19.6
898.802	2.99
898.969	8.49
899.136	11.7
899.303	-0.52
