Data from y0_Transmission_15-19-09-750.txt Node
Date: Thu May 02 15:19:09 EDT 2019
User: dh1006
Spectrometer: USB4E01358
Autoset integration time: false
Trigger mode: 4
Integration Time (sec): 8.000000E-2
Scans to average: 1
Electric dark correction enabled: true
Nonlinearity correction enabled: false
Boxcar width: 0
Stray light correction enabled: false
XAxis mode: Wavelengths
Stop averaging: false
Number of Pixels in Spectrum: 3648
>>>>>Begin Spectral Data<<<<<
176.727	-746.67
176.966	-746.67
177.205	-746.67
177.444	198.88
177.683	88.44
177.922	-25.92
178.161	310.19
178.4	-75
178.638	2525
178.877	353.62
179.116	338.95
179.355	1490.91
179.593	-1.2
179.832	321.47
180.071	139.77
180.309	4366.67
180.548	135.56
180.786	130.53
181.025	-2675
181.263	-122.07
181.502	86.13
181.74	-0.55
181.979	-16.19
182.217	-106.94
182.456	93.54
182.694	101.9
182.932	20.95
183.17	51.45
183.409	-117.01
183.647	115.03
183.885	366.32
184.123	291.08
184.361	39.57
184.6	9.14
184.838	-544.44
185.076	-167.86
185.314	-0.65
185.552	62.13
185.79	-73.69
186.028	68.13
186.266	119.29
186.503	135.96
186.741	98.28
186.979	20.3
187.217	-2675
187.455	26.05
187.693	91.03
187.93	23.22
188.168	1550
188.406	55.9
188.643	-19.01
188.881	-588.41
189.119	36.08
189.356	-797.22
189.594	46.73
189.831	51.24
190.069	45.85
190.306	-28.57
190.543	57.41
190.781	14.34
191.018	26.99
191.256	90.16
191.493	-104.14
191.73	25.63
191.967	-353.57
192.205	-53.8
192.442	-26.29
192.679	-10800
192.916	144.37
193.153	150.63
193.39	-260.71
193.628	608.48
193.865	-96.56
194.102	322.22
194.339	20.2
194.576	-52.71
194.813	-8.41
195.049	201.25
195.286	160.28
195.523	257.77
195.76	-16.08
195.997	19.35
196.234	48.64
196.47	-161.15
196.707	-302.99
196.944	18.43
197.18	58.47
197.417	77.34
197.654	26.4
197.89	7.21
198.127	-67.71
198.363	451.72
198.6	15.3
198.836	-93.78
199.073	-40.86
199.309	10.53
199.546	42.12
199.782	-87.26
200.018	-833.33
200.255	32.68
200.491	-974.42
200.727	25.73
200.963	39.59
201.199	-68.53
201.436	447.19
201.672	-37.48
201.908	108.01
202.144	-7.64
202.38	78.95
202.616	55.12
202.852	269.31
203.088	9.11
203.324	-222.11
203.56	-637.8
203.796	-103.96
204.032	98.97
204.268	439.58
204.503	260.16
204.739	246.24
204.975	-29.48
205.211	-41.78
205.446	23.51
205.682	12.46
205.918	-762.79
206.153	4.24
206.389	83.89
206.625	188.29
206.86	69.77
207.096	-50.63
207.331	94.63
207.567	-36.56
207.802	51.02
208.037	-43.91
208.273	-0.64
208.508	-291.67
208.744	-31.29
208.979	35.92
209.214	-7875
209.449	-52.71
209.685	-55.04
209.92	43.35
210.155	-115.97
210.39	-30.14
210.625	-376.79
210.86	-68.53
211.095	167.16
211.33	1.28
211.565	-664.81
211.8	78.16
212.035	-56.2
212.27	57.99
212.505	319.15
212.74	22.34
212.975	2613.64
213.21	149.42
213.444	-24.62
213.679	34.3
213.914	41.6
214.149	-65.19
214.383	37.67
214.618	33.33
214.853	-6.14
215.087	-99.46
215.322	26.75
215.556	-73.37
215.791	23.26
216.025	83.47
216.26	-155.02
216.494	372.97
216.729	-207.41
216.963	-30.14
217.197	11.01
217.432	2.71
217.666	-209.76
217.9	-0.27
218.135	16.76
218.369	-111.11
218.603	152.69
218.837	34.63
219.071	173.83
219.306	22.56
219.54	114.58
219.774	8.62
220.008	55.39
220.242	-314.05
220.476	-935.29
220.71	59.96
220.944	59.35
221.178	-98.78
221.411	-45.86
221.645	87.93
221.879	81.19
222.113	-1136.67
222.347	98.03
222.58	-28.57
222.814	-0.36
223.048	430.56
223.281	-11.02
223.515	221.24
223.749	-318.75
223.982	-30.14
224.216	783
224.449	130.26
224.683	-99.75
224.916	274.07
225.15	71.37
225.383	224
225.617	-43.95
225.85	32.75
226.083	346.09
226.317	56.18
226.55	11.56
226.783	478.7
227.016	4.87
227.25	45.71
227.483	-725
227.716	-89.63
227.949	40.13
228.182	-25.63
228.415	-0.95
228.648	-91.25
228.881	34.23
229.114	-55.77
229.347	94.75
229.58	770
229.813	21.45
230.046	53.03
230.279	-43.65
230.512	-8.58
230.745	-37.49
230.977	60.42
231.21	40.44
231.443	50.35
231.675	217.23
231.908	-1623.53
232.141	47.13
232.373	-222.11
232.606	-267.35
232.839	12.45
233.071	-128.44
233.304	-207.95
233.536	311.58
233.769	217.05
234.001	82.06
234.233	-147.22
234.466	-24.8
234.698	320.1
234.93	-171.38
235.163	-8.22
235.395	-1125.58
235.627	33.33
235.86	-362.32
236.092	-13.96
236.324	-0.46
236.556	40.05
236.788	64.66
237.02	21.13
237.252	23.26
237.484	70.97
237.716	-530
237.948	110.56
238.18	-238.84
238.412	83.42
238.644	285.55
238.876	-75
239.108	19.62
239.34	431.15
239.571	37.13
239.803	-0.65
240.035	397.63
240.267	92.4
240.498	-688.89
240.73	1027.87
240.962	37.69
241.193	-62.09
241.425	58.35
241.656	207.91
241.888	45.11
242.119	50.96
242.351	-97.67
242.582	182.55
242.814	-249.59
243.045	24.31
243.277	-2.24
243.508	654.05
243.739	-16.76
243.971	88.54
244.202	-2.27
244.433	-31.79
244.664	-4.11
244.896	114.24
245.127	7.65
245.358	-1235.71
245.589	231.21
245.82	281.84
246.051	13.9
246.282	29.26
246.513	111.24
246.744	35.65
246.975	-495.12
247.206	59.08
247.437	-180.28
247.668	177.78
247.899	61.03
248.129	14.37
248.36	-69.75
248.591	-50.22
248.822	26.49
249.052	-11.94
249.283	-0.4
249.514	-8.28
249.744	-3.3
249.975	138.92
250.206	-24.67
250.436	-99.7
250.667	432.37
250.897	44.95
251.128	-4.47
251.358	548.65
251.589	195.83
251.819	73.57
252.049	-15.16
252.28	-17.09
252.51	14.31
252.74	-91.09
252.971	1875
253.201	82.75
253.431	5.01
253.661	-68.87
253.891	46.87
254.121	1.13
254.352	-53.33
254.582	825.71
254.812	-68.53
255.042	-164.82
255.272	16.27
255.502	-60.87
255.732	2055.56
255.962	495.08
256.192	19.87
256.421	3.3
256.651	-79.37
256.881	-180.44
257.111	112.58
257.341	59.35
257.57	148.47
257.8	-26.3
258.03	13.46
258.259	50.21
258.489	28.53
258.719	-26.03
258.948	-57.99
259.178	134.41
259.407	60.18
259.637	-40.95
259.866	250
260.096	-217.09
260.325	404.05
260.555	58.82
260.784	54.01
261.013	-608.93
261.243	115.64
261.472	812.16
261.701	73.78
261.931	-139.02
262.16	83.72
262.389	-53.55
262.618	-124.24
262.847	85.54
263.076	-50.21
263.305	-65.62
263.535	-25.94
263.764	7.42
263.993	69.37
264.222	34.34
264.451	-6.06
264.679	40.06
264.908	-22.3
265.137	0.88
265.366	-19.11
265.595	14.33
265.824	59.17
266.053	29.04
266.281	-257.23
266.51	-23.86
266.739	126.52
266.967	37.76
267.196	1875
267.425	25.63
267.653	-82.44
267.882	-2.35
268.11	291.27
268.339	-22.82
268.567	-228.3
268.796	-77.73
269.024	-423.21
269.253	-150.92
269.481	22.29
269.709	8.91
269.938	-145.32
270.166	48.13
270.394	109.73
270.623	28.07
270.851	2.92
271.079	80.94
271.307	88.41
271.535	29.57
271.764	-25.35
271.992	139.36
272.22	-0.36
272.448	-61.7
272.676	-76.9
272.904	30.34
273.132	5.85
273.36	-23.25
273.588	37.33
273.816	-12.36
274.043	-72.75
274.271	106.49
274.499	-59.11
274.727	-556.48
274.955	-37.46
275.182	-28.24
275.41	-281.18
275.638	219.49
275.866	1441.67
276.093	52.34
276.321	-160.85
276.548	-23.92
276.776	53.16
277.003	-9.13
277.231	788.57
277.458	-57.3
277.686	-58.75
277.913	95.62
278.141	38.24
278.368	-59.64
278.595	25.5
278.823	-621.95
279.05	13
279.277	3.26
279.505	66.21
279.732	-141.04
279.959	1308.57
280.186	31.2
280.413	-45.15
280.641	156.07
280.868	28.11
281.095	124.37
281.322	-1223.33
281.549	-47.59
281.776	44.36
282.003	17.49
282.23	-113.1
282.457	91.34
282.683	59.09
282.91	-172.5
283.137	-11.47
283.364	2672.73
283.591	-99.58
283.818	-4300
284.044	-1155.81
284.271	101.81
284.498	37.62
284.724	38.96
284.951	6.36
285.178	40.37
285.404	-29.89
285.631	200.51
285.857	-61.46
286.084	29.25
286.31	-69.09
286.537	-33.72
286.763	37.35
286.99	-19.11
287.216	3933.33
287.442	-108.16
287.669	-2.45
287.895	30.73
288.121	235.97
288.347	-110.5
288.574	-5.74
288.8	-19.92
289.026	53.03
289.252	41.91
289.478	-157.46
289.704	-4.87
289.931	-6.58
290.157	4.28
290.383	-26.6
290.609	33.33
290.835	14.31
291.06	-76.65
291.286	-79.27
291.512	110.98
291.738	-28.57
291.964	51.76
292.19	-252.52
292.416	-267.2
292.641	8.85
292.867	-32.68
293.093	-177.14
293.319	22.68
293.544	67.8
293.77	75.27
293.995	241.01
294.221	24.05
294.447	72.07
294.672	-50.42
294.898	51.52
295.123	-37.06
295.349	7.28
295.574	-130.49
295.799	17.32
296.025	-104.44
296.25	-39.19
296.476	172
296.701	22.61
296.926	1.82
297.151	-183.33
297.377	1160
297.602	-95.57
297.827	-21.31
298.052	-164.38
298.277	91.79
298.502	-11.64
298.727	111.81
298.953	68.85
299.178	39.37
299.403	5.03
299.628	7.97
299.852	-137.82
300.077	-3229.41
300.302	6.87
300.527	-4.06
300.752	102.37
300.977	1082
301.202	218.03
301.426	-62.2
301.651	-140
301.876	-400
302.101	-130.68
302.325	54.07
302.55	125.63
302.775	-163.32
302.999	63.35
303.224	-47.92
303.448	-7.77
303.673	-327.78
303.897	70.12
304.122	-43.51
304.346	79.46
304.571	-0.5
304.795	-205.44
305.019	-9.14
305.244	56.62
305.468	-66.22
305.692	175.15
305.917	-410.74
306.141	-99.82
306.365	836.07
306.589	-31.67
306.813	5.1
307.038	-133.81
307.262	-61.06
307.486	2.38
307.71	11300
307.934	59.66
308.158	-136.99
308.382	-47.31
308.606	-48.87
308.83	-19.01
309.054	-99.56
309.278	26.43
309.502	54.34
309.725	133.53
309.949	41.16
310.173	32.09
310.397	17.75
310.62	-79.85
310.844	36.46
311.068	-172.5
311.292	-7.13
311.515	-13.32
311.739	1495.83
311.962	-110.7
312.186	21.08
312.41	-51.47
312.633	10.38
312.857	37.93
313.08	-436.11
313.303	-17.16
313.527	-26.03
313.75	-18.15
313.974	-41.71
314.197	158.48
314.42	-6.7
314.644	132.53
314.867	-7.66
315.09	3.9
315.313	53.24
315.536	18.3
315.76	-14.48
315.983	-80.59
316.206	-14.73
316.429	71.25
316.652	-411.56
316.875	17.78
317.098	25.31
317.321	11.03
317.544	-391.88
317.767	40.99
317.99	-45.73
318.213	23.22
318.436	-17.41
318.658	-21.18
318.881	-108.05
319.104	36.43
319.327	53.21
319.55	138.65
319.772	117
319.995	-140
320.218	32.39
320.44	476.98
320.663	61.93
320.885	-109.64
321.108	19.86
321.331	-26.03
321.553	-210.76
321.776	-4950
321.998	31.99
322.22	-99.78
322.443	87.5
322.665	44.89
322.888	31.87
323.11	66.43
323.332	-28.57
323.555	154.41
323.777	-137.72
323.999	-51.04
324.221	15.46
324.443	39.31
324.666	-81.78
324.888	31.73
325.11	-485.95
325.332	-34.17
325.554	-277.36
325.776	-37.48
325.998	597.67
326.22	-4.35
326.442	18.64
326.664	67.27
326.886	-50.47
327.108	88.62
327.33	-232.44
327.551	-33.91
327.773	-43.43
327.995	-41.48
328.217	1.37
328.439	52.87
328.66	19.13
328.882	212.4
329.104	-933.93
329.325	24.89
329.547	50.15
329.769	-0.99
329.99	83.37
330.212	1283.61
330.433	33.33
330.655	-0.47
330.876	-64.62
331.098	985.25
331.319	19.04
331.54	17.66
331.762	-10
331.983	85.54
332.204	-85.2
332.426	-19.56
332.647	359.55
332.868	-12.64
333.089	-41.38
333.311	40.07
333.532	83.72
333.753	-2653.33
333.974	39.71
334.195	-82.07
334.416	43.63
334.637	26.34
334.858	93.85
335.079	190.13
335.3	-7.46
335.521	-197.49
335.742	-531.88
335.963	4.39
336.184	41.34
336.405	36.74
336.626	22.6
336.846	19.62
337.067	132.38
337.288	37.64
337.509	-1136.67
337.729	11.22
337.95	-1004.65
338.171	-125.63
338.391	24.84
338.612	17.49
338.833	1225
339.053	-40.43
339.274	-7.13
339.494	-25.24
339.715	-7.94
339.935	-87.34
340.156	70.97
340.376	-13.46
340.596	53.35
340.817	1531.43
341.037	-103.8
341.257	32.42
341.478	28.52
341.698	-46.74
341.918	-383.75
342.138	-17.94
342.359	-120.43
342.579	-33.58
342.799	-20.83
343.019	-30.08
343.239	23.73
343.459	2.12
343.679	70.29
343.899	7.65
344.119	54.49
344.339	-181.96
344.559	44.57
344.779	17.58
344.999	-32.51
345.219	28.35
345.439	-82.68
345.658	1477.78
345.878	656.25
346.098	-68.63
346.318	-3.83
346.537	1077.27
346.757	109.22
346.977	37.56
347.196	21.53
347.416	-73.09
347.636	8.7
347.855	53.36
348.075	-119.32
348.294	-115.63
348.514	-171.3
348.733	-5.27
348.953	-331.58
349.172	-111.11
349.392	-28.08
349.611	40.08
349.83	34.51
350.05	-128.5
350.269	-9.63
350.488	34.22
350.707	-205.75
350.927	47.31
351.146	12.46
351.365	-41.38
351.584	-237.5
351.803	-0.49
352.023	15.14
352.242	66.53
352.461	-36
352.68	-68.53
352.899	5.29
353.118	42.55
353.337	121.97
353.556	-130.12
353.775	-27.6
353.993	-20.56
354.212	66.56
354.431	-0.29
354.65	64.69
354.869	-7.34
355.088	14.07
355.306	51.69
355.525	-39.52
355.744	-91.44
355.962	-8.6
356.181	390.54
356.4	-19.88
356.618	-32.2
356.837	-112.94
357.055	-11.07
357.274	86.72
357.492	-363.89
357.711	48.03
357.929	68.6
358.148	-388.44
358.366	86.55
358.585	140.45
358.803	-13.86
359.021	646.9
359.24	-56.54
359.458	-198.19
359.676	-24.25
359.894	-11.24
360.113	65.14
360.331	-18.17
360.549	2162.86
360.767	1.7
360.985	-361.19
361.203	-40.27
361.421	21.02
361.639	10.74
361.857	46.17
362.075	-28.57
362.293	32.06
362.511	-75
362.729	-135.05
362.947	-49.11
363.165	-75
363.383	-46.87
363.601	49.58
363.819	-89.85
364.036	3.9
364.254	38.83
364.472	-72.02
364.689	-52.11
364.907	20.2
365.125	95.62
365.342	186.13
365.56	54.49
365.778	-50.14
365.995	-58.75
366.213	19.35
366.43	19.27
366.648	-95.31
366.865	-10
367.083	89.52
367.3	-217.8
367.517	-35.61
367.735	-10.66
367.952	-27.39
368.17	-12.93
368.387	4.75
368.604	21.85
368.821	106.55
369.039	27.95
369.256	-11.88
369.473	68.39
369.69	48.54
369.907	250
370.124	1550
370.341	154.41
370.558	4.74
370.776	-16.07
370.993	-0.53
371.21	-11.83
371.426	28.48
371.643	4.18
371.86	11.2
372.077	-95.17
372.294	-0.38
372.511	1.66
372.728	17.09
372.945	14.85
373.161	-6.13
373.378	33.33
373.595	-91.75
373.811	63.78
374.028	28.49
374.245	47.63
374.461	-54.43
374.678	32.69
374.895	-8.09
375.111	-33.69
375.328	29.64
375.544	1005.41
375.761	81.77
375.977	28.53
376.194	46.05
376.41	-65.5
376.626	-21.34
376.843	-25.21
377.059	57.27
377.275	43.77
377.492	32.89
377.708	-39.85
377.924	13.73
378.14	-128.53
378.357	5.98
378.573	-13.29
378.789	36.07
379.005	47.56
379.221	-147.09
379.437	-107.25
379.653	8.76
379.869	38.41
380.085	-37.48
380.301	5.34
380.517	4.44
380.733	19.09
380.949	18.47
381.165	-18.17
381.381	-23.21
381.597	45.21
381.813	17.71
382.028	-35.53
382.244	10.37
382.46	-34.31
382.676	-16.87
382.891	-73.34
383.107	-10.9
383.323	14.3
383.538	-52.85
383.754	4.88
383.969	41.07
384.185	25.96
384.4	50.64
384.616	-74.14
384.831	37.84
385.047	-41.26
385.262	30.54
385.478	6.25
385.693	-13
385.909	37.65
386.124	-6.93
386.339	14.17
386.554	-52.16
386.77	-0.33
386.985	-11.73
387.2	-82.56
387.415	82.32
387.631	79.28
387.846	-9.91
388.061	-24.28
388.276	-40.59
388.491	12.99
388.706	-50.79
388.921	-9.03
389.136	12.05
389.351	43.42
389.566	-5.93
389.781	2.59
389.996	40.64
390.211	22.6
390.426	-4.14
390.641	-8.55
390.855	-20.75
391.07	11.68
391.285	-3.58
391.5	-25.76
391.714	23.36
391.929	8.75
392.144	-3.49
392.358	-8.18
392.573	-1.04
392.788	-21.64
393.002	9.59
393.217	6.68
393.431	-1.33
393.646	20.15
393.86	-27.08
394.075	-5.91
394.289	-28.57
394.504	-5.96
394.718	-4.03
394.933	-14.71
395.147	-0.6
395.361	-6.13
395.576	2.19
395.79	-6.37
396.004	3.3
396.218	0.99
396.432	11.46
396.647	21.54
396.861	6.76
397.075	16.3
397.289	10.44
397.503	6.01
397.717	-3.47
397.931	4.23
398.145	-14.65
398.359	-3.21
398.573	-7.48
398.787	4.87
399.001	4.48
399.215	-3.44
399.429	-13.69
399.643	-0.4
399.857	-13.98
400.07	4.07
400.284	8.65
400.498	7.1
400.712	5.81
400.925	-2.89
401.139	-6.53
401.353	1.92
401.566	-1.35
401.78	3.34
401.994	-4.48
402.207	-1.75
402.421	-0.58
402.634	-2.12
402.848	6.15
403.061	-0.78
403.275	4.74
403.488	0.16
403.702	0.64
403.915	5.18
404.128	0.16
404.342	-4.6
404.555	-3.96
404.768	7.54
404.982	1.83
405.195	-11.71
405.408	-1.97
405.621	-0.22
405.835	2.56
406.048	-1.76
406.261	6.85
406.474	7.12
406.687	-9.82
406.9	0.44
407.113	1.24
407.326	1.06
407.539	-0.64
407.752	2.75
407.965	2.12
408.178	1.94
408.391	6.54
408.604	2.94
408.817	1.44
409.029	3.5
409.242	1.89
409.455	1.01
409.668	2.17
409.881	-0.49
410.093	-1.52
410.306	1.35
410.519	-0.97
410.731	-0.64
410.944	5.02
411.157	4.46
411.369	-0.24
411.582	1.54
411.794	-0.55
412.007	-1.03
412.219	3.98
412.432	6.98
412.644	0.37
412.857	0.86
413.069	1.81
413.281	2.69
413.494	6.41
413.706	1.99
413.918	3.63
414.131	1.86
414.343	0.78
414.555	2.38
414.767	0.76
414.979	4.04
415.192	1.99
415.404	3
415.616	0.23
415.828	1.91
416.04	0.31
416.252	6.04
416.464	-2.01
416.676	3.52
416.888	4.16
417.1	0.92
417.312	3.82
417.524	2.27
417.736	2.43
417.948	-0.57
418.159	1.4
418.371	1.84
418.583	1.11
418.795	1.03
419.007	3.79
419.218	1.98
419.43	2.67
419.642	0.13
419.853	-0.86
420.065	2.76
420.276	0.93
420.488	2.41
420.7	2.86
420.911	3.63
421.123	0.56
421.334	1.44
421.546	3.29
421.757	0.45
421.969	1.01
422.18	0.87
422.391	1.38
422.603	-0.4
422.814	4.2
423.025	1.01
423.237	4.17
423.448	5.91
423.659	3.27
423.87	-1.27
424.082	1.8
424.293	1.73
424.504	3.81
424.715	5.23
424.926	1.83
425.137	2.02
425.348	4.62
425.559	3.26
425.77	5.62
425.981	3.63
426.192	4.23
426.403	0.74
426.614	0.36
426.825	2.4
427.036	4.03
427.247	2.79
427.458	5.77
427.668	1.54
427.879	3.82
428.09	2.02
428.301	1.94
428.511	1.86
428.722	0.83
428.933	2.91
429.143	1.99
429.354	3.52
429.565	2.05
429.775	1.85
429.986	4.53
430.196	5.35
430.407	1.48
430.617	0.53
430.828	2.78
431.038	3.9
431.249	3.01
431.459	4.12
431.669	5.18
431.88	5.23
432.09	4.9
432.3	4.38
432.511	4.29
432.721	6.81
432.931	4.83
433.141	1.8
433.351	4.6
433.562	3.27
433.772	4.1
433.982	6.23
434.192	6.73
434.402	3.14
434.612	3.06
434.822	5.02
435.032	3.88
435.242	6.76
435.452	2.77
435.662	5.56
435.872	5.5
436.082	4.59
436.292	6.9
436.502	6.39
436.711	1.55
436.921	5.57
437.131	5.59
437.341	1.78
437.551	7.99
437.76	9.8
437.97	5.58
438.18	5.81
438.389	6.65
438.599	6.68
438.808	7.24
439.018	7.77
439.228	9.1
439.437	6.93
439.647	7.3
439.856	7.88
440.066	6.7
440.275	10.64
440.484	10.71
440.694	7.75
440.903	12.37
441.113	10.23
441.322	10.86
441.531	7.96
441.741	9.4
441.95	11.27
442.159	9.89
442.368	10.59
442.577	12.22
442.787	10.1
442.996	13.08
443.205	9.59
443.414	13.8
443.623	13.21
443.832	10.4
444.041	14.35
444.25	15.23
444.459	12.87
444.668	13.84
444.877	14.03
445.086	12.99
445.295	15.75
445.504	13.32
445.713	16.96
445.922	14.06
446.13	14.38
446.339	15.7
446.548	14.5
446.757	14.21
446.965	12.52
447.174	14.19
447.383	15.09
447.591	12.01
447.8	15.58
448.009	15.22
448.217	14.91
448.426	15.45
448.634	18.77
448.843	15.92
449.051	16.9
449.26	19.48
449.468	17.23
449.677	20.64
449.885	17.5
450.093	16.66
450.302	16.8
450.51	17.29
450.719	15.99
450.927	14.28
451.135	19.04
451.343	14.43
451.552	19.99
451.76	16.37
451.968	17.63
452.176	15.42
452.384	16.04
452.592	17.47
452.8	18.03
453.009	13.5
453.217	15.69
453.425	12.58
453.633	16.8
453.841	15.34
454.049	12.77
454.257	13.12
454.464	14.56
454.672	12.92
454.88	15.13
455.088	11.28
455.296	13.46
455.504	11.52
455.711	16.01
455.919	12.78
456.127	12.23
456.335	12.07
456.542	12.25
456.75	10.58
456.958	11.27
457.165	11.13
457.373	10.51
457.581	9.23
457.788	9.84
457.996	9.29
458.203	10.18
458.411	11.28
458.618	8.86
458.826	6.84
459.033	9.23
459.24	9.36
459.448	9.94
459.655	8.87
459.863	9.65
460.07	9.51
460.277	6.7
460.484	7
460.692	10.44
460.899	7.7
461.106	6.46
461.313	8.29
461.52	7.71
461.728	9.06
461.935	8.58
462.142	7.6
462.349	8.99
462.556	7.44
462.763	7.28
462.97	3.44
463.177	10.26
463.384	7.08
463.591	4.87
463.798	7.85
464.005	6.26
464.212	6.88
464.418	7.08
464.625	6.12
464.832	5.39
465.039	3.77
465.246	6.34
465.452	6.44
465.659	7.58
465.866	4.75
466.072	3
466.279	7.46
466.486	6.07
466.692	6.79
466.899	5.48
467.105	3.51
467.312	5.16
467.519	5.25
467.725	4.17
467.931	1.1
468.138	2.6
468.344	3.17
468.551	2.28
468.757	3.7
468.964	5.3
469.17	3.39
469.376	3.94
469.583	4.12
469.789	3.87
469.995	1.77
470.201	4.82
470.408	3.81
470.614	1.85
470.82	1.96
471.026	0.19
471.232	4.2
471.438	3.07
471.644	4.17
471.85	4.26
472.056	2.66
472.262	6.1
472.468	2.53
472.674	4.4
472.88	4.46
473.086	2.37
473.292	3.71
473.498	1.97
473.704	1.36
473.91	3.94
474.116	3.34
474.321	2.99
474.527	3.6
474.733	2.52
474.939	1.13
475.144	3.36
475.35	2.86
475.556	1.43
475.761	3.01
475.967	2.77
476.173	1.69
476.378	3.83
476.584	1.66
476.789	3.11
476.995	5.13
477.2	4.12
477.406	1.62
477.611	0.86
477.817	1.78
478.022	2.17
478.227	2.61
478.433	1.88
478.638	0.74
478.843	2.72
479.049	2.68
479.254	3.26
479.459	1.11
479.664	2.23
479.87	2.66
480.075	1.96
480.28	3.2
480.485	3.56
480.69	2.44
480.895	2.58
481.1	0.74
481.306	2.99
481.511	2.04
481.716	1.48
481.921	1.36
482.126	2.27
482.33	2.3
482.535	1.03
482.74	1.93
482.945	2.76
483.15	1.33
483.355	3.03
483.56	1.36
483.765	1.08
483.969	0.46
484.174	2.93
484.379	2.6
484.583	0.15
484.788	1.92
484.993	0.96
485.197	2.74
485.402	2.71
485.607	2.87
485.811	0.64
486.016	2.46
486.22	3.48
486.425	2.6
486.629	1.88
486.834	1.72
487.038	2.53
487.243	1.77
487.447	1.52
487.652	2.15
487.856	2.79
488.06	2.02
488.265	2.2
488.469	0.92
488.673	1.61
488.877	1.4
489.082	3.34
489.286	2.17
489.49	1.83
489.694	1.67
489.898	2.83
490.102	2
490.307	1.18
490.511	0.92
490.715	2.43
490.919	1.09
491.123	1.17
491.327	1.54
491.531	1.45
491.735	1.42
491.939	1.02
492.143	1.07
492.346	1.43
492.55	0.89
492.754	0.87
492.958	2.05
493.162	0.51
493.366	1.36
493.569	1.6
493.773	1.76
493.977	2.07
494.18	2.45
494.384	0.16
494.588	2.51
494.791	1.12
494.995	1.76
495.199	1.72
495.402	1.38
495.606	1.3
495.809	2.25
496.013	0.4
496.216	2.07
496.42	0.02
496.623	0.84
496.827	2.3
497.03	2.13
497.233	1.25
497.437	0.83
497.64	0.95
497.843	0.36
498.047	1.25
498.25	1.34
498.453	1.52
498.656	1.6
498.86	1.6
499.063	2.13
499.266	1.12
499.469	0.85
499.672	1.7
499.875	2.13
500.078	0.39
500.281	0.88
500.484	1.39
500.687	1.05
500.89	1.98
501.093	1.42
501.296	1.84
501.499	0.98
501.702	2.23
501.905	0.86
502.108	2.44
502.311	1.4
502.514	0.47
502.716	1.57
502.919	1.61
503.122	0.93
503.325	2.23
503.527	0.71
503.73	2.14
503.933	0.54
504.135	1.3
504.338	1.82
504.541	1.34
504.743	1.65
504.946	1.52
505.148	0.88
505.351	1.32
505.553	0.84
505.756	0.95
505.958	2.13
506.161	1.07
506.363	1.47
506.565	1.4
506.768	1.18
506.97	0.72
507.172	1.06
507.375	1.37
507.577	1.14
507.779	2.02
507.982	1.01
508.184	1.28
508.386	0.97
508.588	0.85
508.79	1.05
508.993	1.97
509.195	1.8
509.397	1.29
509.599	1.42
509.801	1.17
510.003	1.3
510.205	1.76
510.407	1.57
510.609	1.08
510.811	1.67
511.013	1.2
511.215	1.23
511.417	0.61
511.618	1.17
511.82	1.69
512.022	1.22
512.224	1.49
512.426	0.88
512.627	1.34
512.829	1.08
513.031	1.49
513.233	2.05
513.434	1.08
513.636	1.32
513.838	1.48
514.039	1.84
514.241	1.06
514.442	1.43
514.644	1.41
514.845	1.63
515.047	1.65
515.248	1.55
515.45	1.6
515.651	1.24
515.853	1.23
516.054	0.99
516.256	1.1
516.457	2.23
516.658	1.49
516.86	1.02
517.061	0.99
517.262	1.29
517.463	1.9
517.665	1.49
517.866	1.52
518.067	1.5
518.268	1.73
518.469	1.26
518.67	0.56
518.872	1.18
519.073	1.18
519.274	1.59
519.475	1.63
519.676	1.15
519.877	1.29
520.078	2.02
520.279	1.24
520.48	1.46
520.681	1.29
520.881	1.22
521.082	2.03
521.283	1.45
521.484	1.5
521.685	1.65
521.886	1.65
522.086	1.32
522.287	1.3
522.488	1.21
522.689	1.68
522.889	1.99
523.09	1.06
523.291	1.74
523.491	1.43
523.692	1.55
523.892	1.8
524.093	1.63
524.294	1.61
524.494	1.15
524.695	1.21
524.895	1.6
525.096	1.6
525.296	1.46
525.496	1.85
525.697	1.6
525.897	1.64
526.098	1.9
526.298	1.69
526.498	2.03
526.699	1.84
526.899	1.49
527.099	1.42
527.299	1.86
527.499	1.48
527.7	1.52
527.9	2.18
528.1	1.63
528.3	2.01
528.5	1.77
528.7	1.58
528.9	1.39
529.1	1.62
529.3	1.94
529.5	1.87
529.7	1.86
529.9	2.02
530.1	1.7
530.3	1.34
530.5	1.57
530.7	2.01
530.9	2.03
531.1	2
531.3	1.92
531.499	1.41
531.699	2.14
531.899	1.18
532.099	1.57
532.298	1.86
532.498	1.89
532.698	1.86
532.897	2.01
533.097	1.58
533.297	1.68
533.496	1.67
533.696	1.78
533.895	1.77
534.095	2.02
534.294	1.88
534.494	1.68
534.693	1.82
534.893	1.76
535.092	1.68
535.292	2.07
535.491	1.74
535.69	1.65
535.89	1.41
536.089	2.21
536.288	1.93
536.488	1.74
536.687	1.93
536.886	1.67
537.085	1.81
537.285	1.73
537.484	2.05
537.683	1.94
537.882	1.83
538.081	1.89
538.28	1.94
538.479	1.93
538.678	1.78
538.877	1.86
539.076	1.91
539.275	1.82
539.474	1.95
539.673	2.35
539.872	1.99
540.071	2.41
540.27	2.16
540.469	2.38
540.668	2.17
540.867	2.28
541.065	2.13
541.264	1.91
541.463	2.24
541.662	1.87
541.861	2.56
542.059	1.98
542.258	2.08
542.457	2.31
542.655	1.76
542.854	2.03
543.052	2.56
543.251	2.32
543.45	2.57
543.648	2.59
543.847	2.4
544.045	2.21
544.244	2.46
544.442	2.44
544.641	1.97
544.839	2.31
545.037	2.58
545.236	2.17
545.434	2.63
545.632	2.26
545.831	2.43
546.029	2.07
546.227	2.2
546.426	2.6
546.624	2.12
546.822	2.47
547.02	2.28
547.218	2.5
547.417	2.47
547.615	2.48
547.813	2.56
548.011	2.53
548.209	2.82
548.407	2.84
548.605	2.82
548.803	2.38
549.001	2.55
549.199	2.44
549.397	2.8
549.595	2.94
549.793	3.02
549.991	2.84
550.189	2.94
550.387	2.71
550.584	2.83
550.782	2.81
550.98	3.07
551.178	2.98
551.376	2.77
551.573	2.73
551.771	3.02
551.969	3.17
552.166	2.73
552.364	3.12
552.562	2.86
552.759	3.01
552.957	2.87
553.154	2.89
553.352	3.12
553.55	3
553.747	2.64
553.945	3.34
554.142	2.99
554.339	3.13
554.537	3.05
554.734	3.02
554.932	3.02
555.129	2.69
555.326	3.23
555.524	3.2
555.721	3.13
555.918	3.31
556.116	3.05
556.313	3.55
556.51	3.08
556.707	3.42
556.904	2.9
557.102	3.47
557.299	3.5
557.496	3.54
557.693	3.74
557.89	3.16
558.087	3.27
558.284	3.23
558.481	3.81
558.678	3.65
558.875	3.47
559.072	3.62
559.269	3.58
559.466	3.46
559.663	3.92
559.86	3.58
560.057	3.69
560.254	3.51
560.45	3.94
560.647	3.88
560.844	3.76
561.041	3.78
561.237	3.46
561.434	4
561.631	4.19
561.828	4.11
562.024	3.97
562.221	3.76
562.418	4.28
562.614	3.97
562.811	4.14
563.007	3.96
563.204	4.3
563.4	4.03
563.597	4.41
563.793	3.94
563.99	4.51
564.186	4.51
564.383	4.68
564.579	4.43
564.775	4.48
564.972	4.6
565.168	4.4
565.365	4.62
565.561	4.82
565.757	4.55
565.953	4.71
566.15	4.6
566.346	4.73
566.542	4.73
566.738	4.79
566.934	5.05
567.131	4.74
567.327	5.04
567.523	4.79
567.719	5
567.915	5.34
568.111	5.36
568.307	5.17
568.503	5.16
568.699	5.37
568.895	5.29
569.091	5.4
569.287	5.23
569.483	4.91
569.679	5.46
569.875	5.22
570.07	5.24
570.266	5.7
570.462	5.56
570.658	5.28
570.854	5.42
571.049	5.48
571.245	5.3
571.441	5.98
571.636	5.63
571.832	5.35
572.028	5.74
572.223	5.59
572.419	5.57
572.615	5.86
572.81	5.87
573.006	5.97
573.201	5.74
573.397	6.28
573.592	6.04
573.788	6.01
573.983	6.02
574.179	6.26
574.374	6.26
574.569	6.73
574.765	6.37
574.96	6.44
575.156	6.46
575.351	6.46
575.546	6.54
575.741	6.47
575.937	6.53
576.132	6.95
576.327	6.81
576.522	6.64
576.718	6.9
576.913	6.91
577.108	7.18
577.303	6.79
577.498	6.81
577.693	7.14
577.888	7.09
578.083	7.31
578.278	7.44
578.473	7.24
578.668	7.61
578.863	7.55
579.058	7.13
579.253	7.7
579.448	7.07
579.643	7.88
579.838	7.6
580.033	7.36
580.227	7.96
580.422	8.16
580.617	7.61
580.812	7.66
581.006	7.74
581.201	8.59
581.396	7.87
581.591	8.18
581.785	8.57
581.98	8.57
582.175	8.6
582.369	9.5
582.564	9.07
582.758	9.18
582.953	9.17
583.147	9.18
583.342	8.87
583.536	9
583.731	8.98
583.925	9.71
584.12	9.51
584.314	9.47
584.509	9.46
584.703	9.42
584.897	9.27
585.092	9.57
585.286	9.51
585.48	9.35
585.674	9.64
585.869	9.57
586.063	9.85
586.257	9.88
586.451	9.83
586.646	10.09
586.84	9.77
587.034	10.06
587.228	9.79
587.422	10.33
587.616	10.24
587.81	10.08
588.004	10.09
588.198	10.22
588.392	10.56
588.586	10.92
588.78	11.14
588.974	10.38
589.168	11.14
589.362	10.96
589.556	11.24
589.75	10.8
589.944	11.01
590.137	11.04
590.331	11.05
590.525	11.36
590.719	11.49
590.913	11.41
591.106	11.42
591.3	11.57
591.494	11.73
591.687	11.82
591.881	11.8
592.075	11.67
592.268	11.82
592.462	11.91
592.655	11.75
592.849	11.63
593.043	11.84
593.236	12.23
593.43	11.87
593.623	12.24
593.817	12.41
594.01	12.19
594.203	12.51
594.397	12.68
594.59	13.49
594.784	13.15
594.977	13.05
595.17	13.62
595.364	12.93
595.557	13.28
595.75	13.34
595.943	13.39
596.137	13.1
596.33	12.95
596.523	13.01
596.716	13.13
596.909	13.19
597.102	13.47
597.296	14.02
597.489	13.78
597.682	13.49
597.875	13.6
598.068	13.29
598.261	13.62
598.454	13.55
598.647	13.44
598.84	13.59
599.033	13.69
599.226	13.58
599.419	14.13
599.611	14.02
599.804	13.94
599.997	14.59
600.19	14.28
600.383	14.77
600.576	14.35
600.768	14.51
600.961	14.54
601.154	14.55
601.347	14.57
601.539	15.03
601.732	14.72
601.925	14.69
602.117	14.95
602.31	14.87
602.502	14.65
602.695	15.13
602.888	14.94
603.08	15.25
603.273	15.26
603.465	15.7
603.658	15.38
603.85	15.67
604.043	14.87
604.235	15
604.427	15.4
604.62	15.24
604.812	15.44
605.004	15.64
605.197	15.79
605.389	15.46
605.581	15.34
605.774	15.64
605.966	16.04
606.158	15.65
606.35	15.46
606.543	15.56
606.735	16.15
606.927	15.88
607.119	16.53
607.311	16.37
607.503	16.19
607.695	16.27
607.887	15.91
608.079	16.47
608.271	16.8
608.463	16.55
608.655	16.76
608.847	17.09
609.039	16.89
609.231	17.13
609.423	16.78
609.615	16.99
609.807	16.39
609.999	16.65
610.191	16.75
610.382	16.47
610.574	16.8
610.766	17.15
610.958	16.91
611.15	16.79
611.341	16.56
611.533	16.91
611.725	17
611.916	17
612.108	16.88
612.3	17.47
612.491	16.78
612.683	17.19
612.874	17.24
613.066	17.02
613.257	17.53
613.449	16.98
613.64	16.93
613.832	17
614.023	17.48
614.215	17.34
614.406	17.77
614.598	17.95
614.789	18.32
614.98	17.88
615.172	17.72
615.363	18.06
615.554	17.55
615.746	17.52
615.937	17.77
616.128	17.67
616.319	17.67
616.511	17.71
616.702	17.96
616.893	17.82
617.084	18.07
617.275	18.49
617.466	18.21
617.658	18.36
617.849	18.2
618.04	17.78
618.231	17.94
618.422	17.76
618.613	17.85
618.804	17.2
618.995	17.94
619.186	17.66
619.377	17.75
619.568	17.59
619.758	17.96
619.949	17.88
620.14	17.55
620.331	17.6
620.522	17.87
620.713	17.64
620.903	17.48
621.094	17.95
621.285	18.2
621.476	18.11
621.666	17.91
621.857	18.12
622.048	18.38
622.238	18.34
622.429	19.03
622.62	18.66
622.81	18.73
623.001	18.96
623.191	18.58
623.382	18.54
623.572	18.25
623.763	18.32
623.953	18.21
624.144	17.94
624.334	18.09
624.525	18.35
624.715	18.7
624.905	19.26
625.096	18.87
625.286	17.98
625.477	18.3
625.667	18.23
625.857	18.06
626.047	17.97
626.238	18.25
626.428	18.53
626.618	18.19
626.808	17.94
626.999	18.21
627.189	18.14
627.379	18.46
627.569	18.08
627.759	17.89
627.949	18.31
628.139	17.95
628.329	18.29
628.519	18.58
628.709	18.19
628.899	18.13
629.089	18.32
629.279	18.05
629.469	17.97
629.659	18.34
629.849	17.94
630.039	17.74
630.229	17.62
630.419	17.69
630.609	17.96
630.798	17.67
630.988	18.12
631.178	17.71
631.368	17.9
631.557	17.97
631.747	18.17
631.937	18.01
632.127	18.62
632.316	18.56
632.506	18.92
632.696	18.93
632.885	18.79
633.075	18.44
633.264	18.6
633.454	18.33
633.643	18.53
633.833	18.27
634.022	18.32
634.212	18.27
634.401	18.44
634.591	18.74
634.78	18.27
634.97	18.41
635.159	18.61
635.348	18.59
635.538	18.44
635.727	18.6
635.916	18.26
636.106	18.28
636.295	18.44
636.484	18.09
636.674	18.17
636.863	18.04
637.052	17.77
637.241	17.94
637.43	17.58
637.619	17.61
637.809	17.61
637.998	18.3
638.187	18.54
638.376	18.18
638.565	18.55
638.754	18.7
638.943	18.42
639.132	18.28
639.321	17.44
639.51	16.97
639.699	17.08
639.888	17.22
640.077	17.43
640.266	17.07
640.455	17.45
640.643	17.33
640.832	17.79
641.021	17.43
641.21	17.8
641.399	17.84
641.587	18.04
641.776	18.06
641.965	18.06
642.154	18.14
642.342	18.21
642.531	18.34
642.72	17.91
642.908	18.1
643.097	17.47
643.286	18.06
643.474	17.76
643.663	17.69
643.851	17.17
644.04	17.54
644.228	17.72
644.417	17.88
644.605	18.11
644.794	18.22
644.982	18.41
645.171	18.24
645.359	18.19
645.547	18.18
645.736	17.87
645.924	17.56
646.112	17.32
646.301	17.19
646.489	17.14
646.677	17.34
646.866	16.86
647.054	17.11
647.242	17.41
647.43	17.28
647.618	17.81
647.807	17.46
647.995	17.32
648.183	16.9
648.371	16.97
648.559	16.89
648.747	17.41
648.935	17.47
649.123	18.01
649.311	17.68
649.499	17.54
649.687	17.55
649.875	17.07
650.063	17.52
650.251	17.14
650.439	17.22
650.627	17.58
650.815	17.52
651.003	16.93
651.191	17.32
651.378	17.07
651.566	17.12
651.754	17.16
651.942	17.87
652.13	17.26
652.317	16.8
652.505	16.97
652.693	16.96
652.88	16.56
653.068	16.7
653.256	17.15
653.443	16.82
653.631	17.02
653.819	16.98
654.006	16.95
654.194	16.97
654.381	17.37
654.569	17.19
654.756	16.9
654.944	17.09
655.131	17.31
655.319	16.69
655.506	17.06
655.693	17.45
655.881	17.23
656.068	17.36
656.256	17.46
656.443	17.36
656.63	17.49
656.818	17.28
657.005	17.24
657.192	17.38
657.379	17.45
657.567	17.6
657.754	17.66
657.941	17.57
658.128	17.34
658.315	17.57
658.502	17.24
658.69	17.52
658.877	16.97
659.064	17.05
659.251	17.05
659.438	16.94
659.625	17.2
659.812	16.77
659.999	16.67
660.186	17
660.373	17.06
660.56	16.9
660.747	17.15
660.934	17.41
661.121	17.42
661.308	17.63
661.494	17.52
661.681	17.49
661.868	17.62
662.055	17.11
662.242	17.01
662.428	17.21
662.615	16.98
662.802	17.77
662.989	17.94
663.175	18.27
663.362	18.48
663.549	18.39
663.735	17.88
663.922	17.61
664.109	17.37
664.295	17.45
664.482	17.5
664.668	17.5
664.855	17.68
665.041	17.37
665.228	17.28
665.414	17.55
665.601	17.4
665.787	17.3
665.974	16.98
666.16	16.82
666.347	16.56
666.533	17.11
666.719	16.75
666.906	17.06
667.092	16.72
667.278	17.46
667.465	17.35
667.651	17.4
667.837	17.87
668.023	17.7
668.21	18.07
668.396	17.45
668.582	17.46
668.768	16.84
668.954	16.81
669.14	16.8
669.327	17.44
669.513	17.71
669.699	17.51
669.885	17.78
670.071	17.28
670.257	17.87
670.443	17.74
670.629	17.71
670.815	17.58
671.001	17.71
671.187	17.39
671.373	17.31
671.559	17.21
671.744	17.9
671.93	17.57
672.116	18.01
672.302	18.36
672.488	17.81
672.674	17.93
672.859	18.06
673.045	18.05
673.231	17.56
673.417	17.62
673.602	17.84
673.788	17.27
673.974	17.31
674.159	17.57
674.345	16.95
674.531	17.41
674.716	17.17
674.902	17.44
675.087	18.06
675.273	17.89
675.459	17.99
675.644	18.09
675.83	17.95
676.015	17.74
676.2	17.62
676.386	17.53
676.571	17.41
676.757	17.5
676.942	17.41
677.128	17.23
677.313	16.73
677.498	16.63
677.684	16.85
677.869	16.92
678.054	18.12
678.24	18.01
678.425	18.07
678.61	18.2
678.795	18.12
678.98	18.59
679.166	18.46
679.351	17.73
679.536	17.63
679.721	17.77
679.906	17.23
680.091	17.27
680.276	17.34
680.461	17.54
680.647	17.19
680.832	17.41
681.017	17.67
681.202	17.94
681.387	17.7
681.572	17.86
681.756	17.86
681.941	17.36
682.126	17.95
682.311	17.46
682.496	17.37
682.681	17.53
682.866	17.72
683.051	17.47
683.235	17.7
683.42	18.46
683.605	18.36
683.79	18.29
683.974	18.35
684.159	17.55
684.344	17.56
684.529	17.37
684.713	17.8
684.898	17.68
685.083	17.56
685.267	17.37
685.452	17.96
685.636	17.54
685.821	17.62
686.005	17.38
686.19	17.55
686.375	17.9
686.559	17.88
686.744	17.64
686.928	17.66
687.112	17.6
687.297	17.23
687.481	17.27
687.666	16.83
687.85	16.94
688.034	17.1
688.219	17.15
688.403	17.03
688.587	17.34
688.772	17.24
688.956	16.92
689.14	17.11
689.324	17.55
689.509	17.27
689.693	16.69
689.877	16.51
690.061	16.97
690.245	16.71
690.43	16.9
690.614	17.23
690.798	16.81
690.982	17.1
691.166	17.06
691.35	17.14
691.534	16.86
691.718	17.25
691.902	17.81
692.086	17.15
692.27	16.94
692.454	17.31
692.638	17.01
692.822	17.59
693.006	17.36
693.19	17.68
693.373	17.44
693.557	17.39
693.741	16.86
693.925	17.16
694.109	17.23
694.293	16.96
694.476	17.21
694.66	17.37
694.844	17.02
695.027	17.53
695.211	17.19
695.395	17.48
695.578	17.53
695.762	16.97
695.946	16.74
696.129	16.53
696.313	16.59
696.497	16.58
696.68	16.49
696.864	16.99
697.047	17.03
697.231	17.08
697.414	16.51
697.598	15.68
697.781	16.05
697.965	15.62
698.148	15.96
698.331	15.71
698.515	16.02
698.698	16.26
698.881	16.47
699.065	16.7
699.248	16.6
699.431	16.78
699.615	16.55
699.798	16.23
699.981	16.53
700.165	16.36
700.348	15.84
700.531	16.34
700.714	16.35
700.897	16.13
701.08	16.43
701.264	15.64
701.447	16.12
701.63	16
701.813	17.03
701.996	16.25
702.179	17.09
702.362	16.89
702.545	16.63
702.728	16.61
702.911	16.72
703.094	16.83
703.277	16.71
703.46	17.4
703.643	16.84
703.826	16.46
704.009	16.63
704.191	16.3
704.374	16.21
704.557	16.18
704.74	16.17
704.923	16.29
705.106	16.05
705.288	15.55
705.471	15.97
705.654	15.96
705.837	15.76
706.019	16.09
706.202	16.31
706.385	16.42
706.567	15.77
706.75	16.13
706.932	15.88
707.115	15.75
707.298	15.43
707.48	15.28
707.663	15.72
707.845	15.73
708.028	16.13
708.21	15.65
708.393	16.39
708.575	16.02
708.758	16.22
708.94	16.1
709.123	16.66
709.305	16.55
709.487	16.27
709.67	16.42
709.852	15.68
710.034	16.67
710.217	16.3
710.399	16
710.581	15.9
710.764	16.07
710.946	15.7
711.128	15.97
711.31	15.22
711.492	15.41
711.675	15.8
711.857	15.89
712.039	15.68
712.221	15.91
712.403	15.77
712.585	15.64
712.767	15.46
712.949	15.98
713.131	16.16
713.314	15.89
713.496	15.57
713.678	15.47
713.86	15.77
714.041	16.11
714.223	15.82
714.405	15.84
714.587	15.52
714.769	15.48
714.951	15.39
715.133	15.24
715.315	16.07
715.497	15.81
715.678	15.9
715.86	15.81
716.042	16.2
716.224	15.86
716.406	15.5
716.587	15.46
716.769	15.21
716.951	15.46
717.132	15.95
717.314	15.61
717.496	15.76
717.677	15.78
717.859	15.48
718.041	14.75
718.222	14.46
718.404	14.58
718.585	14.43
718.767	14.41
718.948	15.12
719.13	15.27
719.311	15.38
719.493	14.89
719.674	15.17
719.856	14.46
720.037	14.63
720.219	14.46
720.4	15
720.581	14.62
720.763	15.14
720.944	15.23
721.125	14.52
721.307	14.82
721.488	14.75
721.669	14.64
721.85	14.53
722.032	14.7
722.213	14.56
722.394	14.7
722.575	14.71
722.756	14.6
722.938	14.47
723.119	14.55
723.3	14.51
723.481	14.29
723.662	14.63
723.843	13.87
724.024	13.87
724.205	14.48
724.386	14.49
724.567	14.46
724.748	15.04
724.929	14.82
725.11	14.34
725.291	15.26
725.472	15.07
725.653	15.24
725.834	15.07
726.015	14.81
726.196	14.68
726.377	14.31
726.557	14.62
726.738	15.19
726.919	14.51
727.1	13.92
727.281	14.21
727.461	14.21
727.642	13.71
727.823	14.34
728.004	14.16
728.184	14.45
728.365	14.48
728.546	14.31
728.726	14.2
728.907	14.69
729.087	14.05
729.268	14.54
729.449	13.75
729.629	14.22
729.81	13.89
729.99	14.12
730.171	13.49
730.351	13.58
730.532	13.7
730.712	13.67
730.893	13.81
731.073	13.4
731.253	12.68
731.434	13.14
731.614	13.76
731.795	13.69
731.975	13.49
732.155	13.96
732.336	13.8
732.516	13.67
732.696	14.02
732.876	13.56
733.057	13.92
733.237	12.94
733.417	13.03
733.597	12.92
733.778	13.13
733.958	12.98
734.138	13.61
734.318	13.25
734.498	12.97
734.678	12.74
734.858	13.26
735.038	13.34
735.218	13.57
735.398	13.28
735.579	14.27
735.759	13.57
735.939	13.9
736.119	13.12
736.298	14.19
736.478	13.34
736.658	13.24
736.838	13.41
737.018	13.97
737.198	13.37
737.378	13.59
737.558	13.43
737.738	13.29
737.917	13.3
738.097	13.34
738.277	13.49
738.457	13.59
738.637	13.05
738.816	13.35
738.996	13.13
739.176	13.39
739.355	13.06
739.535	13.06
739.715	13.26
739.894	13.08
740.074	13.06
740.254	12.37
740.433	12.49
740.613	12.49
740.792	12.88
740.972	12.96
741.151	12.65
741.331	12.36
741.51	12.91
741.69	13.03
741.869	13.69
742.049	13.15
742.228	12.65
742.408	12.48
742.587	13.25
742.766	12.79
742.946	13.75
743.125	13.12
743.305	13.14
743.484	13.06
743.663	12.57
743.842	12.47
744.022	12.77
744.201	12.66
744.38	12.52
744.56	12.99
744.739	12.36
744.918	12.6
745.097	12.97
745.276	12.57
745.455	12.8
745.635	13.09
745.814	12.07
745.993	13.11
746.172	12.8
746.351	13.03
746.53	13.57
746.709	12.5
746.888	13.35
747.067	13.04
747.246	13.28
747.425	12.86
747.604	12.98
747.783	12.85
747.962	12.64
748.141	13.07
748.32	12.81
748.499	12.93
748.677	12.52
748.856	12.04
749.035	12.98
749.214	13.69
749.393	12.46
749.572	12.19
749.75	12.75
749.929	12.99
750.108	12.15
750.287	12.71
750.465	12.19
750.644	12.34
750.823	12.78
751.001	12.35
751.18	12.23
751.359	11.9
751.537	12.54
751.716	11.64
751.894	12.13
752.073	12.07
752.251	11.72
752.43	11.81
752.609	11.68
752.787	11.91
752.966	11.2
753.144	11.94
753.322	11.85
753.501	11.41
753.679	11.52
753.858	11.44
754.036	11.09
754.215	11.28
754.393	11.54
754.571	11.13
754.75	10.82
754.928	11.53
755.106	11.73
755.284	11.96
755.463	11.98
755.641	11.36
755.819	11.55
755.997	12.22
756.176	11.77
756.354	12.13
756.532	12.33
756.71	12.5
756.888	11.49
757.066	12.24
757.245	11.8
757.423	11.26
757.601	11.17
757.779	11.46
757.957	11.67
758.135	11.35
758.313	11.98
758.491	11.44
758.669	11.06
758.847	11.07
759.025	11.29
759.203	11.5
759.381	11.22
759.559	11.28
759.737	11.24
759.915	10.9
760.092	11.23
760.27	11.39
760.448	11.35
760.626	11.37
760.804	11.1
760.981	11.4
761.159	11.66
761.337	11.55
761.515	11.59
761.692	11.35
761.87	11.21
762.048	10.89
762.226	11.66
762.403	10.98
762.581	10.66
762.759	11.44
762.936	11.21
763.114	11.65
763.291	11.24
763.469	11.68
763.647	11.13
763.824	11.88
764.002	11.41
764.179	11.85
764.357	11.55
764.534	11.17
764.712	10.62
764.889	11.3
765.066	11.67
765.244	10.02
765.421	10.3
765.599	11.57
765.776	11.04
765.953	10.1
766.131	11.52
766.308	11.04
766.485	11.13
766.663	11.08
766.84	11.3
767.017	10.66
767.194	10.42
767.372	11.11
767.549	11.03
767.726	11.47
767.903	10.15
768.081	10.18
768.258	10.63
768.435	10.41
768.612	10.48
768.789	11.03
768.966	10.58
769.143	10.8
769.32	10.92
769.497	10.54
769.674	10.81
769.851	10.11
770.028	10.41
770.205	10.98
770.382	10.56
770.559	10.61
770.736	10.83
770.913	10.54
771.09	10.91
771.267	9.79
771.444	10.2
771.621	11.09
771.798	10.91
771.975	11.13
772.151	11.4
772.328	11.06
772.505	9.65
772.682	10.1
772.859	10.44
773.035	10.79
773.212	10.05
773.389	9.65
773.565	11.11
773.742	10.28
773.919	9.99
774.096	10.02
774.272	10.72
774.449	10.15
774.625	10.36
774.802	10.19
774.979	11.17
775.155	10.57
775.332	10.83
775.508	11.02
775.685	10.29
775.861	10.85
776.038	11.12
776.214	9.43
776.391	10.24
776.567	9.78
776.744	10.37
776.92	10.86
777.096	9.05
777.273	10.02
777.449	10.91
777.626	9.81
777.802	10.36
777.978	10.03
778.155	10.26
778.331	9.93
778.507	9.41
778.683	9.28
778.86	11.07
779.036	9.76
779.212	9.67
779.388	10.57
779.565	9.62
779.741	11.65
779.917	9.25
780.093	9.35
780.269	9.29
780.445	9.02
780.621	10.69
780.797	9.45
780.974	8.97
781.15	9.92
781.326	9.9
781.502	9.74
781.678	9.86
781.854	9.32
782.03	9.37
782.206	10.12
782.382	9.67
782.558	10.29
782.733	9.46
782.909	10.32
783.085	11.06
783.261	10.02
783.437	9.21
783.613	9.83
783.789	10.23
783.965	9.05
784.14	9.31
784.316	9.37
784.492	9.33
784.668	9.63
784.843	9.15
785.019	8.68
785.195	8.29
785.371	9.9
785.546	10.44
785.722	8.82
785.898	9.72
786.073	10.81
786.249	11.25
786.424	9.44
786.6	9
786.776	9.97
786.951	9.38
787.127	10.12
787.302	9.82
787.478	9.88
787.653	8.55
787.829	9.7
788.004	8.54
788.18	10.14
788.355	7.79
788.531	9.6
788.706	9.64
788.881	8.06
789.057	11.55
789.232	8.91
789.408	10.14
789.583	10.48
789.758	8.95
789.934	8.89
790.109	8.47
790.284	11.61
790.459	9.68
790.635	8.48
790.81	9.61
790.985	9.67
791.16	7.95
791.336	10.15
791.511	8.79
791.686	9.22
791.861	9.79
792.036	10.81
792.211	8.69
792.387	10.26
792.562	9.74
792.737	7.67
792.912	8.26
793.087	8.64
793.262	8.82
793.437	8.88
793.612	7.55
793.787	8.76
793.962	6.26
794.137	9.73
794.312	8.58
794.487	8.91
794.662	8.04
794.837	9.66
795.011	8.52
795.186	10.11
795.361	9.53
795.536	7.55
795.711	7.7
795.886	8.86
796.06	7.74
796.235	8.65
796.41	6.65
796.585	9.2
796.76	9.08
796.934	9.8
797.109	10.48
797.284	8.87
797.458	9.16
797.633	9.62
797.808	5.97
797.982	10.54
798.157	9.15
798.332	9.08
798.506	8.32
798.681	7.4
798.855	10.09
799.03	11.17
799.204	9.56
799.379	8.92
799.553	7.09
799.728	6.15
799.902	8.15
800.077	10.07
800.251	10.09
800.426	10.44
800.6	7.54
800.775	9.59
800.949	7.04
801.123	10.21
801.298	9.13
801.472	10.6
801.647	9.59
801.821	8.59
801.995	6.73
802.169	7.4
802.344	8.94
802.518	9.5
802.692	6.43
802.867	8.82
803.041	10.7
803.215	9.27
803.389	9.62
803.563	6.57
803.737	11.26
803.912	9.61
804.086	5.69
804.26	7.74
804.434	9.6
804.608	7.74
804.782	7.26
804.956	8.79
805.13	7.13
805.304	5.48
805.478	7.85
805.652	9.93
805.826	12.39
806	11.78
806.174	7.67
806.348	7.77
806.522	7.81
806.696	8.71
806.87	9.65
807.044	9.12
807.218	11.71
807.392	11.91
807.566	4.68
807.739	8.7
807.913	8.16
808.087	9.22
808.261	5.19
808.435	10.97
808.608	4.64
808.782	4.87
808.956	3.87
809.13	6.07
809.303	10.04
809.477	11.32
809.651	10.3
809.824	8.41
809.998	8.06
810.172	10.77
810.345	8.58
810.519	7.31
810.692	6.75
810.866	5.19
811.04	9.5
811.213	10.91
811.387	8.43
811.56	9.59
811.734	8.92
811.907	12.85
812.081	9.49
812.254	7.27
812.428	9.89
812.601	8.71
812.774	9.05
812.948	9.87
813.121	10.72
813.295	9.64
813.468	12.77
813.641	5.45
813.815	11.18
813.988	10.15
814.161	5.43
814.335	9.21
814.508	6.15
814.681	5.42
814.854	8.38
815.028	4.68
815.201	10.97
815.374	7.45
815.547	6.49
815.72	9.98
815.894	12.8
816.067	7.71
816.24	10.86
816.413	8.84
816.586	7.15
816.759	11.03
816.932	6.66
817.105	10.87
817.278	9.36
817.452	6.75
817.625	10.37
817.798	7.49
817.971	9.84
818.144	9.75
818.317	11.56
818.49	6.93
818.662	9.55
818.835	7.57
819.008	6.97
819.181	9.76
819.354	8.84
819.527	10.05
819.7	5.26
819.873	7.91
820.046	10.7
820.218	12.08
820.391	9.8
820.564	8.51
820.737	9.6
820.909	10.94
821.082	7.42
821.255	7.33
821.428	9.46
821.6	8.45
821.773	8.41
821.946	9.31
822.118	7.55
822.291	7.7
822.464	6.61
822.636	10.28
822.809	10.43
822.982	8.13
823.154	10.46
823.327	8.79
823.499	9.48
823.672	10.4
823.844	1.43
824.017	9.51
824.189	8.37
824.362	12.28
824.534	10.43
824.707	7.68
824.879	6.39
825.052	9.18
825.224	9
825.396	5.8
825.569	10.47
825.741	5.65
825.914	10.62
826.086	8.12
826.258	10.03
826.431	10.5
826.603	9.71
826.775	8.11
826.947	4.36
827.12	14.04
827.292	11.89
827.464	6.24
827.636	10.03
827.809	8.1
827.981	8.35
828.153	9.09
828.325	7.55
828.497	10.06
828.669	9.59
828.842	2.83
829.014	10.95
829.186	4.22
829.358	7.59
829.53	9.98
829.702	7.04
829.874	8.68
830.046	7.38
830.218	12.7
830.39	6.34
830.562	10.61
830.734	10.38
830.906	9.11
831.078	7.57
831.25	12.99
831.422	4.26
831.594	8.62
831.766	9.38
831.937	6.57
832.109	5.95
832.281	8.15
832.453	6.09
832.625	9.87
832.797	8.26
832.968	9.51
833.14	7.78
833.312	9.18
833.484	11.36
833.655	9.1
833.827	7.87
833.999	8.9
834.171	10.23
834.342	9.76
834.514	10.4
834.686	11.79
834.857	9.43
835.029	6.06
835.2	10.64
835.372	7.97
835.544	9.64
835.715	6.91
835.887	6.19
836.058	9.93
836.23	9.67
836.401	9.36
836.573	5.87
836.744	5.51
836.916	6.95
837.087	7.64
837.259	8.65
837.43	7.05
837.602	9.77
837.773	8.44
837.945	7.13
838.116	5.02
838.287	5.39
838.459	4.56
838.63	7.44
838.801	10.02
838.973	4.18
839.144	7.75
839.315	11.59
839.487	7.28
839.658	9.82
839.829	11.1
840	5.44
840.172	7.09
840.343	8.87
840.514	9.47
840.685	11.44
840.856	6.11
841.027	12.46
841.199	10.61
841.37	4.64
841.541	7.2
841.712	12.04
841.883	11.68
842.054	10.23
842.225	6.16
842.396	8.41
842.567	2.78
842.738	10.04
842.909	9.52
843.08	9.07
843.251	7.28
843.422	9.12
843.593	8.17
843.764	8.82
843.935	9.68
844.106	4.14
844.277	9.56
844.448	11.29
844.619	5.91
844.79	7.38
844.96	6.26
845.131	11.61
845.302	7.74
845.473	7.36
845.644	12.21
845.814	8
845.985	8.81
846.156	10.08
846.327	7.07
846.497	6.86
846.668	5.76
846.839	8.27
847.01	9.89
847.18	6.2
847.351	9.53
847.522	10.26
847.692	9.16
847.863	4.53
848.033	12.81
848.204	11.36
848.375	4.16
848.545	10.96
848.716	8.25
848.886	8.86
849.057	7.11
849.227	8.3
849.398	0.46
849.568	8.81
849.739	8.29
849.909	6.04
850.08	13.12
850.25	4.54
850.421	5.09
850.591	9.85
850.761	5.92
850.932	5.95
851.102	1.54
851.272	10.99
851.443	8.21
851.613	10.09
851.783	11.19
851.954	6.71
852.124	9.85
852.294	6.44
852.465	6.22
852.635	7.37
852.805	8.07
852.975	5.52
853.145	3.7
853.316	6.2
853.486	6.68
853.656	13.01
853.826	10.48
853.996	4.6
854.166	8.85
854.337	4
854.507	1.15
854.677	11.25
854.847	5.27
855.017	13.4
855.187	11.17
855.357	2.71
855.527	5.9
855.697	12.2
855.867	5.87
856.037	8.93
856.207	14.06
856.377	11.12
856.547	9.33
856.717	14.44
856.887	9.11
857.057	4.78
857.227	6.13
857.397	13.73
857.566	10.05
857.736	7.97
857.906	5.16
858.076	8.37
858.246	9.57
858.416	14.72
858.585	3.32
858.755	9.26
858.925	7.97
859.095	10.99
859.264	10.38
859.434	4.67
859.604	-0.37
859.774	8.23
859.943	9.01
860.113	5.77
860.283	5.11
860.452	11.01
860.622	15.29
860.791	6.91
860.961	6.99
861.131	10.01
861.3	9.41
861.47	-0.22
861.639	1.1
861.809	13.36
861.978	8.61
862.148	5.66
862.318	6.5
862.487	5.11
862.657	6.48
862.826	4.9
862.995	14.31
863.165	13.29
863.334	8.64
863.504	11.55
863.673	6.65
863.843	7.56
864.012	11.34
864.181	0.14
864.351	8.51
864.52	0.97
864.689	7.22
864.859	3.8
865.028	11.21
865.197	1.76
865.366	9.51
865.536	14.06
865.705	17.93
865.874	0.69
866.043	8.84
866.213	7.66
866.382	3.92
866.551	4.81
866.72	14.18
866.889	12.81
867.059	4.07
867.228	8.93
867.397	-1.9
867.566	-1.75
867.735	11.22
867.904	8.89
868.073	4.94
868.242	13.75
868.411	6.98
868.58	13.45
868.749	12.1
868.918	3.25
869.087	8.25
869.256	10.82
869.425	-0.05
869.594	5.37
869.763	9.8
869.932	6.12
870.101	-7.21
870.27	-0.75
870.439	0.77
870.608	3.19
870.777	5.14
870.945	6.46
871.114	10.98
871.283	2.66
871.452	4.13
871.621	14.29
871.789	8
871.958	12.56
872.127	6.91
872.296	-1.26
872.464	13.44
872.633	18.27
872.802	5.54
872.971	10.7
873.139	9.64
873.308	1.83
873.477	14.92
873.645	9.5
873.814	14.36
873.983	-12.02
874.151	12.79
874.32	-6.94
874.488	7.76
874.657	10.16
874.826	15.85
874.994	14.54
875.163	8.14
875.331	9.14
875.5	9.33
875.668	8.46
875.837	10.38
876.005	0.44
876.174	11.88
876.342	1.92
876.51	8.71
876.679	6.75
876.847	19.09
877.016	-7.89
877.184	4.75
877.352	6.11
877.521	13.15
877.689	4.47
877.857	10.8
878.026	8.54
878.194	14.72
878.362	6.67
878.531	7.09
878.699	7.46
878.867	3.92
879.036	5.08
879.204	2.49
879.372	-1.16
879.54	8.33
879.708	20.54
879.877	15.92
880.045	16.18
880.213	5.3
880.381	12.85
880.549	19.7
880.717	3.48
880.885	10.57
881.054	9.69
881.222	13.88
881.39	19.78
881.558	10.87
881.726	-9.42
881.894	9.31
882.062	6.33
882.23	17.63
882.398	14.43
882.566	5.11
882.734	13.66
882.902	9.32
883.07	9.28
883.238	5.05
883.406	6.11
883.574	2.65
883.741	-0.35
883.909	0.25
884.077	12.82
884.245	22.38
884.413	0.26
884.581	5.55
884.749	17.4
884.916	-0.09
885.084	12.88
885.252	8.54
885.42	-6.28
885.587	21.75
885.755	9.22
885.923	7.37
886.091	4.34
886.258	7.26
886.426	1.25
886.594	-3.81
886.761	3.31
886.929	2.13
887.097	10.94
887.264	11.33
887.432	22.08
887.6	-14.71
887.767	3.91
887.935	13.78
888.102	25.28
888.27	-0.74
888.438	11.46
888.605	-7.85
888.773	22.99
888.94	15.46
889.108	-8.72
889.275	17.41
889.443	10.75
889.61	4.33
889.778	12.2
889.945	1.11
890.112	8.68
890.28	1.16
890.447	11.06
890.615	7.08
890.782	12.23
890.949	-7.71
891.117	-9.85
891.284	8.39
891.452	-2.91
891.619	-12.95
891.786	12
891.953	13.88
892.121	16.02
892.288	11.81
892.455	17.24
892.623	10.84
892.79	8.96
892.957	15.95
893.124	13.74
893.291	6.74
893.459	6.54
893.626	11.83
893.793	-7.28
893.96	13.22
894.127	14.19
894.294	21.01
894.461	-2.79
894.629	14.04
894.796	-16.95
894.963	-11.39
895.13	16.53
895.297	6.11
895.464	14.57
895.631	16.41
895.798	7.42
895.965	17.15
896.132	-11.14
896.299	10.38
896.466	28.15
896.633	18.31
896.8	1.43
896.967	14.93
897.134	1.85
897.301	15.3
897.467	17.61
897.634	12.97
897.801	2.4
897.968	16.68
898.135	1.08
898.302	10.75
898.469	2.24
898.635	6.53
898.802	4.56
898.969	14.45
899.136	11.49
899.303	8.03
