Data from x0_Transmission_15-12-16-986.txt Node
Date: Thu May 02 15:12:16 EDT 2019
User: dh1006
Spectrometer: USB4E01358
Autoset integration time: false
Trigger mode: 4
Integration Time (sec): 8.000000E-2
Scans to average: 1
Electric dark correction enabled: true
Nonlinearity correction enabled: false
Boxcar width: 0
Stray light correction enabled: false
XAxis mode: Wavelengths
Stop averaging: false
Number of Pixels in Spectrum: 3648
>>>>>Begin Spectral Data<<<<<
176.727	50
176.966	50
177.205	50
177.444	415.17
177.683	128.9
177.922	23.47
178.161	86.11
178.4	414
178.638	-10350
178.877	-110.14
179.116	987.37
179.355	-1781.82
179.593	26.69
179.832	-130.37
180.071	133.63
180.309	2433.33
180.548	104.93
180.786	169.47
181.025	-2225
181.263	23.1
181.502	71.85
181.74	170.55
181.979	-61.43
182.217	-81.5
182.456	-9.78
182.694	-69.3
182.932	12.86
183.17	76
183.409	-325.85
183.647	21.58
183.885	29.47
184.123	37.92
184.361	120.14
184.6	106.09
184.838	1711.11
185.076	73.21
185.314	-30.72
185.552	11.13
185.79	-30.92
186.028	26.35
186.266	0.54
186.503	-33.63
186.741	-34.64
186.979	77.69
187.217	-13275
187.455	99.16
187.693	39.4
187.93	-13.23
188.168	564.58
188.406	50
188.643	-1.95
188.881	-976.81
189.119	111.71
189.356	-383.33
189.594	116.18
189.831	-62.81
190.069	-140.07
190.306	-15.2
190.543	48.4
190.781	130.28
191.018	-8.13
191.256	977.05
191.493	9.66
191.73	-22.59
191.967	-460.71
192.205	-101.9
192.442	-18.67
192.679	-12625
192.916	-201.87
193.153	204.76
193.39	-808.93
193.628	416.36
193.865	-95.33
194.102	-1.59
194.339	34.05
194.576	-97.83
194.813	28.13
195.049	-120.62
195.286	-65.35
195.523	-35.46
195.76	27.19
195.997	-75.81
196.234	-66.58
196.47	0.52
196.707	11.19
196.944	-69.78
197.18	1.74
197.417	105.86
197.654	-25.03
197.89	32.79
198.127	0.45
198.363	206.9
198.6	52.62
198.836	-68.44
199.073	7
199.309	13.58
199.546	22.18
199.782	-66.51
200.018	-210
200.255	95.8
200.491	-1476.74
200.727	8.19
200.963	110.31
201.199	31.87
201.436	247.19
201.672	-23.09
201.908	-57.28
202.144	12.18
202.38	152.63
202.616	19.74
202.852	13.53
203.088	17.7
203.324	-25.26
203.56	-251.22
203.796	0.66
204.032	-3.53
204.268	1241.67
204.503	182.03
204.739	-6.36
204.975	-12.29
205.211	64.44
205.446	123.71
205.682	7.65
205.918	-55.81
206.153	-56.42
206.389	190.83
206.625	99.37
206.86	76.59
207.096	-128.75
207.331	53.17
207.567	-19.89
207.802	-157.82
208.037	202.61
208.273	27.97
208.508	-262.96
208.744	-64.04
208.979	31.24
209.214	-9700
209.449	-88.45
209.685	-88.94
209.92	-141.62
210.155	0.84
210.39	48.17
210.625	-623.21
210.86	-82.07
211.095	241.18
211.33	-1.4
211.565	-912.96
211.8	-32.18
212.035	-30.58
212.27	52.84
212.505	105.32
212.74	-75.38
212.975	50
213.21	105.54
213.444	103.34
213.679	79.15
213.914	15.27
214.149	-78.15
214.383	21.83
214.618	54.33
214.853	33.47
215.087	-26.88
215.322	-50.76
215.556	-110.05
215.791	-388.37
216.025	-41.32
216.26	-15.2
216.494	822.97
216.729	-190.74
216.963	-65.35
217.197	11.9
217.432	36.98
217.666	34.15
217.9	-9.09
218.135	21.32
218.369	3588.89
218.603	322.46
218.837	11.99
219.071	105.86
219.306	74.25
219.54	126.74
219.774	103.34
220.008	267.96
220.242	-127.27
220.476	700
220.71	65.74
220.944	111.55
221.178	-108.54
221.411	-133.79
221.645	-43.83
221.879	71.34
222.113	-946.67
222.347	128.73
222.58	-117.89
222.814	-44.86
223.048	-202.78
223.281	-23.36
223.515	665.49
223.749	90.62
223.982	4.23
224.216	1324
224.449	332.24
224.683	-88.94
224.916	-563.89
225.15	10.31
225.383	102
225.617	10.67
225.85	22.95
226.083	208.26
226.317	-2
226.55	-38.19
226.783	471.3
227.016	19.7
227.25	31.43
227.483	-669.64
227.716	-50.49
227.949	-66.59
228.182	91.14
228.415	17.09
228.648	-210
228.881	-37.11
229.114	-83.66
229.347	56.21
229.58	115
229.813	94.03
230.046	-142.05
230.279	-19.29
230.512	44.93
230.745	-17.6
230.977	59.03
231.21	14.48
231.443	-11.55
231.675	104.62
231.908	241.18
232.141	68.63
232.373	-134.74
232.606	-104.76
232.839	13.45
233.071	-195.56
233.304	-255.3
233.536	-394.74
233.769	268.66
234.001	68.66
234.233	-82.41
234.466	-1.72
234.698	273.04
234.93	-174.14
235.163	79.26
235.395	-569.77
235.627	-9.09
235.86	-411.59
236.092	43.4
236.324	14.22
236.556	14.73
236.788	42.17
237.02	29.86
237.252	54.32
237.484	94.07
237.716	-730
237.948	90.76
238.18	-9.09
238.412	53.27
238.644	364.84
238.876	-15
239.108	-85.76
239.34	209.84
239.571	-124.85
239.803	6.1
240.035	193.22
240.267	158.19
240.498	2722.22
240.73	1019.67
240.962	-129.65
241.193	-107.22
241.425	46.96
241.656	-225.9
241.888	46.47
242.119	-7.54
242.351	-600
242.582	-54.25
242.814	98.35
243.045	-13.19
243.277	-124.63
243.508	190.54
243.739	-231.79
243.971	23.09
244.202	61.05
244.433	-43.93
244.664	18.7
244.896	-36.39
245.127	29.14
245.358	212.5
245.589	113.87
245.82	209.22
246.051	0.45
246.282	10.74
246.513	93.82
246.744	-5.61
246.975	18.29
247.206	22.11
247.437	-105.63
247.668	37.96
247.899	-61.24
248.129	9.38
248.36	-65.59
248.591	-2.47
248.822	44.47
249.052	-8.21
249.283	-24.16
249.514	9.34
249.744	-77.32
249.975	-36.39
250.206	-84.78
250.436	-11.25
250.667	503.6
250.897	-45.15
251.128	37.55
251.358	190.54
251.589	115
251.819	-30.48
252.049	-93.14
252.28	12.18
252.51	-41.95
252.74	180.86
252.971	1025
253.201	183.04
253.431	-15.99
253.661	-183.02
253.891	123.12
254.121	-18.81
254.352	24
254.582	180
254.812	88.84
255.042	-116.58
255.272	-159.84
255.502	35.87
255.732	2000
255.962	39.34
256.192	44.95
256.421	-179.54
256.651	20.85
256.881	-108.89
257.111	76.13
257.341	-59.58
257.57	107.88
257.8	6.27
258.03	34.1
258.259	14.74
258.489	75.47
258.719	-14.87
258.948	49.13
259.178	-14.55
259.407	515.93
259.637	-110.95
259.866	-380.63
260.096	-123.12
260.325	166.47
260.555	28.15
260.784	15.27
261.013	-948.21
261.243	41.53
261.472	418.92
261.701	-184
261.931	-373.48
262.16	27.33
262.389	-29.19
262.618	-82.95
262.847	21.29
263.076	-13.35
263.305	-16.54
263.535	-103.3
263.764	21.86
263.993	52.84
264.222	37.94
264.451	-53.41
264.679	-5.18
264.908	-2.7
265.137	19.65
265.366	23.09
265.595	57.6
265.824	61.93
266.053	16.86
266.281	-389.6
266.51	-91.88
266.739	46.57
266.967	6.89
267.196	7200
267.425	-72.08
267.653	-71.56
267.882	-15
268.11	359.52
268.339	-58.03
268.567	-189.15
268.796	-239.5
269.024	166.07
269.253	-13.12
269.481	76.91
269.709	-13.82
269.938	19.59
270.166	4.55
270.394	-70.52
270.623	33.41
270.851	-64.04
271.079	61.66
271.307	35.42
271.535	315.65
271.764	-101.22
271.992	335.82
272.22	0.24
272.448	-64.04
272.676	53.8
272.904	32.07
273.132	78.54
273.36	-51.43
273.588	208.76
273.816	7.45
274.043	-92.61
274.271	80.95
274.499	93.33
274.727	-94.44
274.955	-21.41
275.182	-133.57
275.41	-110.75
275.638	169.68
275.866	1133.33
276.093	15.79
276.321	-275
276.548	40.06
276.776	0.44
277.003	-8.46
277.231	1331.43
277.458	-61.87
277.686	33.75
277.913	163.75
278.141	13.17
278.368	-2
278.595	26.51
278.823	-742.68
279.05	-13.36
279.277	-31.02
279.505	-201.03
279.732	-149.4
279.959	885.71
280.186	-98.53
280.413	-27.93
280.641	113.87
280.868	36.95
281.095	93.7
281.322	-1250
281.549	-15.26
281.776	-72.91
282.003	13.19
282.23	27.59
282.457	-37.01
282.683	55.2
282.91	-185.62
283.137	20.54
283.364	2236.36
283.591	77.31
283.818	6875
284.044	-1688.37
284.271	231.87
284.498	-7.92
284.724	7.79
284.951	66.02
285.178	34.92
285.404	64.73
285.631	76.4
285.857	-1.91
286.084	-11.32
286.31	-98.91
286.537	54.5
286.763	-40.49
286.99	8.6
287.216	6333.33
287.442	-334.69
287.669	16.21
287.895	-19.19
288.121	456.83
288.347	159.24
288.574	25.14
288.8	-43.64
289.026	5.68
289.252	-119.47
289.478	-376.87
289.704	6.26
289.931	15.79
290.157	-23.84
290.383	-16.38
290.609	14.9
290.835	53.17
291.06	17.01
291.286	-47.24
291.512	-126.59
291.738	124.88
291.964	-20.29
292.19	-184.87
292.416	-75.81
292.641	115.48
292.867	32.43
293.093	737.14
293.319	39.34
293.544	109.09
293.77	-159.68
293.995	-12.9
294.221	-2.62
294.447	97.21
294.672	-10.08
294.898	58.87
295.123	-2.79
295.349	-65.19
295.574	240.24
295.799	66.51
296.025	-34.28
296.25	-98.73
296.476	-119
296.701	-5.89
296.926	-63.45
297.151	-270.08
297.377	365.71
297.602	-110.44
297.827	62.7
298.052	-15
298.277	-3.34
298.502	0.19
298.727	147.24
298.953	69.54
299.178	35.28
299.403	112.06
299.628	63.74
299.852	-206.72
300.077	-982.35
300.302	-44.27
300.527	-81.98
300.752	-35.93
300.977	479
301.202	124.59
301.426	-88.19
301.651	-49.05
301.876	293.75
302.101	-247.81
302.325	11.12
302.55	-107.22
302.775	53.53
302.999	50.94
303.224	-38.02
303.448	-13.14
303.673	-371.3
303.897	37.86
304.122	121.03
304.346	11.99
304.571	45.68
304.795	-228.57
305.019	62.96
305.244	92.04
305.468	928.38
305.692	172.12
305.917	-213.22
306.141	-59.68
306.365	39.34
306.589	-5.71
306.813	11.33
307.038	-138.81
307.262	-119.47
307.486	62.38
307.71	-6125
307.934	77.64
308.158	-36.42
308.382	-54.93
308.606	-147.01
308.83	32.68
309.054	-230.22
309.278	74.84
309.502	98.09
309.725	-299.42
309.949	-2.21
310.173	41.28
310.397	-22.39
310.62	98.51
310.844	85.2
311.068	-55.62
311.292	67.7
311.515	11.76
311.739	1322.92
311.962	95.77
312.186	18.61
312.41	66.54
312.633	52.75
312.857	18.61
313.08	-479.63
313.303	-21.61
313.527	-25.05
313.75	-188.12
313.974	-74.67
314.197	-69.68
314.42	33.49
314.644	125.7
314.867	-18.81
315.09	-43.8
315.313	-5.89
315.536	-38.64
315.76	-75.52
315.983	-25.06
316.206	50
316.429	-136.87
316.652	-10.67
316.875	50
317.098	14.69
317.321	7.94
317.544	-283.12
317.767	64.55
317.99	-17.55
318.213	10.38
318.436	-73.42
318.658	27.23
318.881	-95.97
319.104	22.14
319.327	91.74
319.55	37.05
319.772	123.05
319.995	743.33
320.218	-1.2
320.44	307.94
320.663	23.6
320.885	-25.89
321.108	11.12
321.331	10.57
321.553	-81.65
321.776	-3850
321.998	8.21
322.22	-110.02
322.443	-107.58
322.665	-149.33
322.888	10.47
323.11	-52.75
323.332	-41.2
323.555	30.88
323.777	-105.85
323.999	-43.12
324.221	83.51
324.443	58.97
324.666	-34.08
324.888	14.69
325.11	-342.15
325.332	-77.39
325.554	-201.42
325.776	-7.5
325.998	1153.49
326.22	643.48
326.442	14.19
326.664	-7.43
326.886	-146.23
327.108	-57.59
327.33	122.22
327.551	-6.03
327.773	-38.4
327.995	-11.21
328.217	-22.81
328.439	2.05
328.66	-24.59
328.882	-256.2
329.104	-1366.07
329.325	19.79
329.547	26.07
329.769	60.73
329.99	-23.56
330.212	486.89
330.433	-43.2
330.655	-11.86
330.876	35.63
331.098	1083.61
331.319	14.04
331.54	34.63
331.762	-11.9
331.983	-28.31
332.204	20.85
332.426	63.38
332.647	400.56
332.868	42.9
333.089	-183.1
333.311	31.34
333.532	24.09
333.753	-730
333.974	13.68
334.195	-2.99
334.416	53.31
334.637	70.97
334.858	53.63
335.079	67.11
335.3	-55.06
335.521	-142.71
335.742	-430.43
335.963	-12.02
336.184	-17.55
336.405	55.11
336.626	41.69
336.846	45.89
337.067	-2.62
337.288	22.3
337.509	-600
337.729	33.42
337.95	-327.91
338.171	-194.97
338.391	-27.89
338.612	22.51
338.833	564.58
339.053	8.51
339.274	13.58
339.494	-2.87
339.715	359.52
339.935	-69.3
340.156	74.79
340.376	32.72
340.596	-2.54
340.817	1071.43
341.037	-40.51
341.257	30.72
341.478	-19.98
341.698	39.4
341.918	-80
342.138	-21.95
342.359	43.01
342.579	-36.73
342.799	-38.64
343.019	-12.36
343.239	12.19
343.459	-13.35
343.679	15.59
343.899	48.4
344.119	5.41
344.339	-151.58
344.559	-12.59
344.779	140.61
344.999	-18.14
345.219	64.94
345.439	-95.01
345.658	2866.67
345.878	158.33
346.098	-132.68
346.318	-1.45
346.537	-422.73
346.757	298.62
346.977	-3.9
347.196	33.98
347.416	25.15
347.636	-29.66
347.855	-37.39
348.075	-137.12
348.294	9.38
348.514	134.26
348.733	-75.27
348.953	-750.53
349.172	-85.78
349.392	-159.84
349.611	37.11
349.83	-45.38
350.05	-82.56
350.269	-12.61
350.488	48.01
350.707	-47.13
350.927	11.33
351.146	41.36
351.365	-23.09
351.584	-235.61
351.803	59.51
352.023	-50.37
352.242	45.23
352.461	-97.33
352.68	83.67
352.899	-66.62
353.118	-141.64
353.337	-107.58
353.556	-121.05
353.775	-1.91
353.993	-58.88
354.212	39.03
354.431	7.66
354.65	56.16
354.869	-5.39
355.088	-20.62
355.306	19.7
355.525	3.51
355.744	-30.09
355.962	1.08
356.181	489.19
356.4	30.99
356.618	25.69
356.837	-98.48
357.055	-1.5
357.274	37.56
357.492	-431.48
357.711	-5.47
357.929	80.23
358.148	-340
358.366	171.64
358.585	166.85
358.803	-102.31
359.021	515.93
359.24	11.48
359.458	-271.48
359.676	61.98
359.894	-69.74
360.113	6.27
360.331	64.11
360.549	2185.71
360.767	-15.11
360.985	-85.82
361.203	5.34
361.421	-22.22
361.639	-34.36
361.857	82.53
362.075	30.92
362.293	50
362.511	-151.58
362.729	-126.63
362.947	-75.77
363.165	-120.62
363.383	-19.2
363.601	5.58
363.819	13.71
364.036	-48.22
364.254	201.78
364.472	-3.67
364.689	-94.65
364.907	11.54
365.125	245
365.342	-254.34
365.56	36.28
365.778	-40.57
365.995	-193.75
366.213	-103.76
366.43	15.27
366.648	-51.56
366.865	34.71
367.083	28.06
367.3	-87.88
367.517	-4.17
367.735	-19.29
367.952	-67.99
368.17	-19.4
368.387	51.72
368.604	44.47
368.821	-57.59
369.039	-19.98
369.256	26.19
369.473	1.62
369.69	-67.84
369.907	-4500
370.124	1527.27
370.341	139.22
370.558	-26.39
370.776	14.77
370.993	-20.43
371.21	-189.86
371.426	-43.27
371.643	-28.42
371.86	35.95
372.077	-174.14
372.294	-1.4
372.511	69.44
372.728	2.25
372.945	19.41
373.161	-0.99
373.378	-52.63
373.595	-98.76
373.811	23.91
374.028	-57.73
374.245	-34.04
374.461	50
374.678	21.44
374.895	-26.47
375.111	3.18
375.328	74.36
375.544	1209.46
375.761	-47.14
375.977	-13.02
376.194	1.91
376.41	-67.84
376.626	-15.44
376.843	-13.62
377.059	34.44
377.275	0.28
377.492	24.11
377.708	11.3
377.924	9.13
378.14	6.03
378.357	56.48
378.573	-106.33
378.789	-3.34
379.005	-8.86
379.221	-54
379.437	-56.68
379.653	-20.5
379.869	55.28
380.085	-87.39
380.301	14.73
380.517	22.72
380.733	19.48
380.949	-61.48
381.165	28.29
381.381	-58.47
381.597	3.7
381.813	18.1
382.028	-62.07
382.244	-54.89
382.46	-3.9
382.676	3.49
382.891	-22.96
383.107	18.33
383.323	-15.88
383.538	-91.93
383.754	24.78
383.969	50
384.185	-16.38
384.4	14.7
384.616	-114.64
384.831	13.72
385.047	-58.33
385.262	12.26
385.478	-13.92
385.693	23.94
385.909	17.1
386.124	-23.82
386.339	2.67
386.554	21.96
386.77	-23.96
386.985	-52.58
387.2	17.61
387.415	-24.52
387.631	31.97
387.846	-14.87
388.061	10.99
388.276	-53.24
388.491	48.98
388.706	-33.89
388.921	9.78
389.136	7.13
389.351	41.99
389.566	-16.61
389.781	1.69
389.996	42.44
390.211	5.62
390.426	42.08
390.641	24.04
390.855	-24.29
391.07	37.65
391.285	-4.57
391.5	-21.84
391.714	21.49
391.929	30.61
392.144	38.22
392.358	-13
392.573	-15.93
392.788	10.5
393.002	-31.92
393.217	26.01
393.431	-7.42
393.646	14.41
393.86	-7.87
394.075	2.02
394.289	-2.6
394.504	6.99
394.718	-1.39
394.933	-10.57
395.147	31.89
395.361	17
395.576	4.21
395.79	-15.79
396.004	16.21
396.218	7.94
396.432	-0.47
396.647	22.95
396.861	18.5
397.075	3.35
397.289	16.45
397.503	18.44
397.717	20.29
397.931	4.39
398.145	12.68
398.359	14.11
398.573	-4.71
398.787	15.69
399.001	14.77
399.215	15.52
399.429	26.1
399.643	4.61
399.857	11.32
400.07	2.47
400.284	14.57
400.498	14.43
400.712	21.59
400.925	16.65
401.139	29.77
401.353	11.08
401.566	9.85
401.78	1.91
401.994	20.32
402.207	11.44
402.421	8.34
402.634	9.15
402.848	15.78
403.061	7.98
403.275	14.84
403.488	18.51
403.702	12.35
403.915	12.88
404.128	12.68
404.342	9.63
404.555	12.85
404.768	17.95
404.982	13.15
405.195	16.69
405.408	14.83
405.621	14.36
405.835	14.06
406.048	15.7
406.261	12.56
406.474	13.86
406.687	11.59
406.9	13.04
407.113	10.1
407.326	18.41
407.539	14.54
407.752	12.5
407.965	16.83
408.178	20.58
408.391	19.18
408.604	19.45
408.817	16.04
409.029	15.25
409.242	15.01
409.455	14.37
409.668	15.45
409.881	12.97
410.093	17.48
410.306	13.46
410.519	10.98
410.731	13.25
410.944	11.6
411.157	16.75
411.369	8.34
411.582	13.24
411.794	12.38
412.007	11.06
412.219	18.91
412.432	15.4
412.644	13.47
412.857	17.71
413.069	12.21
413.281	13.03
413.494	17.3
413.706	20.52
413.918	15.4
414.131	12.81
414.343	10.63
414.555	10.94
414.767	17.59
414.979	14.8
415.192	10.79
415.404	11.37
415.616	11.76
415.828	11.23
416.04	12.73
416.252	13.87
416.464	9.91
416.676	11.42
416.888	12.38
417.1	8.57
417.312	12.28
417.524	9.88
417.736	10.43
417.948	12.66
418.159	11.78
418.371	11.24
418.583	9.22
418.795	9.3
419.007	11.35
419.218	10.37
419.43	9.95
419.642	10.72
419.853	8.72
420.065	13.2
420.276	12.94
420.488	11.72
420.7	8.89
420.911	11.35
421.123	10.62
421.334	7.45
421.546	9
421.757	7.2
421.969	10.1
422.18	7.87
422.391	8.51
422.603	8.11
422.814	10.63
423.025	6.66
423.237	11.08
423.448	9.34
423.659	10.61
423.87	6.3
424.082	6.06
424.293	8.68
424.504	9.11
424.715	9.93
424.926	8.83
425.137	5.49
425.348	10.23
425.559	8.46
425.77	8.95
425.981	6.96
426.192	9.01
426.403	6.41
426.614	6.04
426.825	6.9
427.036	6.2
427.247	6.28
427.458	5.96
427.668	5.45
427.879	7.01
428.09	6.24
428.301	6.63
428.511	5.22
428.722	2.97
428.933	5.44
429.143	3.71
429.354	5.02
429.565	7.97
429.775	6.32
429.986	3.64
430.196	4.51
430.407	2.22
430.617	1.65
430.828	4.35
431.038	5.13
431.249	5.4
431.459	3.84
431.669	5.5
431.88	5.43
432.09	6.89
432.3	3.91
432.511	5.09
432.721	5.78
432.931	3.53
433.141	1.83
433.351	1.84
433.562	2.74
433.772	3.44
433.982	3.16
434.192	4.33
434.402	5.19
434.612	0.43
434.822	2.91
435.032	3.44
435.242	3.07
435.452	1.71
435.662	3.89
435.872	2.13
436.082	2.43
436.292	4.49
436.502	3.12
436.711	1.11
436.921	4.56
437.131	3.3
437.341	1.42
437.551	5.79
437.76	6.67
437.97	0.5
438.18	2.48
438.389	4.04
438.599	1.39
438.808	2.17
439.018	0.78
439.228	2.82
439.437	3.6
439.647	0.45
439.856	3.84
440.066	2.34
440.275	3.6
440.484	3.98
440.694	3.03
440.903	2.4
441.113	2.8
441.322	3.5
441.531	5.11
441.741	2.94
441.95	3.15
442.159	2
442.368	4.2
442.577	-0.12
442.787	3.54
442.996	2.97
443.205	-1.27
443.414	3.28
443.623	4.08
443.832	3.4
444.041	1.48
444.25	4.32
444.459	1.75
444.668	2.69
444.877	1.48
445.086	0.08
445.295	2.65
445.504	3.96
445.713	3.72
445.922	-0.12
446.13	2.63
446.339	-0.86
446.548	1.63
446.757	3.72
446.965	-0.06
447.174	0.07
447.383	4.59
447.591	0.28
447.8	0.88
448.009	2.71
448.217	3.58
448.426	3.45
448.634	1.96
448.843	1.11
449.051	0.01
449.26	2.64
449.468	3.85
449.677	3.55
449.885	3.04
450.093	2.7
450.302	-0.2
450.51	1.47
450.719	-1.5
450.927	0.47
451.135	0.08
451.343	-1.8
451.552	2.91
451.76	2.18
451.968	1.85
452.176	-0.46
452.384	2.8
452.592	2.42
452.8	2.78
453.009	1
453.217	1.31
453.425	0.41
453.633	3.2
453.841	2.98
454.049	1.29
454.257	0.14
454.464	4.45
454.672	2.18
454.88	0.99
455.088	-0.19
455.296	2.63
455.504	3.48
455.711	3.3
455.919	1.94
456.127	2.27
456.335	3.77
456.542	1.05
456.75	1.78
456.958	1.14
457.165	2.62
457.373	1.27
457.581	2.32
457.788	1
457.996	0.34
458.203	1.75
458.411	2.22
458.618	1.67
458.826	0.36
459.033	2.32
459.24	-1.19
459.448	2.87
459.655	2.08
459.863	0.71
460.07	0.72
460.277	1.3
460.484	1.22
460.692	4.55
460.899	-0.79
461.106	2.3
461.313	3.92
461.52	1.11
461.728	2.4
461.935	2.68
462.142	-0.6
462.349	3.4
462.556	2.18
462.763	-0.06
462.97	-0.55
463.177	2.43
463.384	0.73
463.591	3.03
463.798	2.61
464.005	2.67
464.212	1.46
464.418	4.74
464.625	3.29
464.832	-0.05
465.039	1.29
465.246	1.81
465.452	2.7
465.659	2.13
465.866	0.95
466.072	1.46
466.279	0.81
466.486	2.34
466.692	2.16
466.899	0.7
467.105	1.86
467.312	0.37
467.519	2.84
467.725	0.12
467.931	0.01
468.138	2.86
468.344	3.42
468.551	-0.23
468.757	1.13
468.964	3.57
469.17	0.12
469.376	2.01
469.583	1.81
469.789	2.95
469.995	-0.46
470.201	4.74
470.408	3.31
470.614	1.77
470.82	0.87
471.026	-0.87
471.232	1.55
471.438	0.48
471.644	0.8
471.85	2.41
472.056	1.34
472.262	4.3
472.468	1.16
472.674	0.75
472.88	4.53
473.086	0.65
473.292	2.61
473.498	1.33
473.704	1.19
473.91	0.6
474.116	2.38
474.321	2.35
474.527	1.53
474.733	2.2
474.939	0.01
475.144	3.51
475.35	-0.08
475.556	1.24
475.761	2.44
475.967	1.62
476.173	2.64
476.378	3.36
476.584	1.51
476.789	1.13
476.995	2.92
477.2	2.27
477.406	2.11
477.611	0.2
477.817	1.53
478.022	2.11
478.227	2.89
478.433	3.21
478.638	3.1
478.843	3.14
479.049	2.58
479.254	1.31
479.459	-0.15
479.664	2.91
479.87	3.03
480.075	1.37
480.28	2.47
480.485	2.53
480.69	3.32
480.895	2.05
481.1	1.98
481.306	2.7
481.511	2.12
481.716	3.14
481.921	2.1
482.126	2.37
482.33	1.87
482.535	2.08
482.74	0.88
482.945	3.12
483.15	1.15
483.355	2.54
483.56	1.31
483.765	1.72
483.969	1.16
484.174	2.48
484.379	1.47
484.583	2.45
484.788	1.99
484.993	1.74
485.197	3.02
485.402	2.43
485.607	3.57
485.811	2.5
486.016	2.53
486.22	3.79
486.425	2.83
486.629	2.68
486.834	2.52
487.038	2.74
487.243	2.53
487.447	3.42
487.652	4.06
487.856	2.92
488.06	2.88
488.265	3.16
488.469	3.09
488.673	3.42
488.877	2.68
489.082	3.94
489.286	3.61
489.49	3.45
489.694	3.74
489.898	5.14
490.102	2.03
490.307	3.53
490.511	3.02
490.715	2.52
490.919	3.87
491.123	2.83
491.327	3.36
491.531	2.78
491.735	3.89
491.939	3.45
492.143	3.12
492.346	2.76
492.55	2.61
492.754	3.67
492.958	4.43
493.162	4.04
493.366	3.26
493.569	3.61
493.773	3.34
493.977	4.01
494.18	4.44
494.384	3.91
494.588	4.73
494.791	4.54
494.995	4.94
495.199	3.99
495.402	4.79
495.606	4.74
495.809	5.72
496.013	3.54
496.216	4.88
496.42	4.46
496.623	4.12
496.827	4.88
497.03	4.25
497.233	4.59
497.437	4.43
497.64	5.01
497.843	5.01
498.047	5.03
498.25	5.93
498.453	6.16
498.656	5.92
498.86	5.45
499.063	6.77
499.266	5.29
499.469	5.75
499.672	6.27
499.875	6.08
500.078	6.19
500.281	5.19
500.484	6.79
500.687	5.73
500.89	6.22
501.093	6.96
501.296	7.89
501.499	6.6
501.702	8.24
501.905	7.51
502.108	8.91
502.311	7.59
502.514	6.79
502.716	7.97
502.919	8.04
503.122	6.74
503.325	7.84
503.527	8.03
503.73	8.17
503.933	7.64
504.135	8.59
504.338	8.5
504.541	8.82
504.743	9.58
504.946	9.88
505.148	8.71
505.351	9.41
505.553	9.01
505.756	10.04
505.958	9.91
506.161	10.72
506.363	9.82
506.565	10.72
506.768	9.12
506.97	9.98
507.172	10.58
507.375	10.02
507.577	11.12
507.779	11.37
507.982	11.8
508.184	11.83
508.386	11.2
508.588	11.51
508.79	12.09
508.993	12.71
509.195	11.43
509.397	12.56
509.599	12.47
509.801	13.02
510.003	13.44
510.205	13.99
510.407	13.05
510.609	13.67
510.811	14.13
511.013	14.15
511.215	13.93
511.417	13.79
511.618	14.64
511.82	14.18
512.022	14.34
512.224	14.39
512.426	14.27
512.627	13.79
512.829	14.28
513.031	14.2
513.233	15.4
513.434	15.6
513.636	14.81
513.838	15.51
514.039	15.39
514.241	15.27
514.442	15.77
514.644	15.4
514.845	15.37
515.047	15.27
515.248	15.7
515.45	15.26
515.651	15.12
515.853	15.34
516.054	15.71
516.256	14.88
516.457	16.13
516.658	15.88
516.86	14.47
517.061	15.32
517.262	16.05
517.463	15.5
517.665	15.58
517.866	16.15
518.067	14.9
518.268	15.38
518.469	14.84
518.67	14.72
518.872	14.36
519.073	14.58
519.274	14.21
519.475	14.38
519.676	13.02
519.877	13.93
520.078	13.88
520.279	13.45
520.48	13.14
520.681	13.25
520.881	13.02
521.082	13.12
521.283	13.17
521.484	13.12
521.685	12.98
521.886	12.77
522.086	12.62
522.287	13.23
522.488	12.99
522.689	12.37
522.889	12.18
523.09	11.85
523.291	12.37
523.491	11.66
523.692	11.18
523.892	11.66
524.093	11.5
524.294	10.76
524.494	10.1
524.695	10.39
524.895	10.58
525.096	10.22
525.296	9.74
525.496	10.35
525.697	9.47
525.897	9.54
526.098	9.29
526.298	9.32
526.498	9.7
526.699	8.83
526.899	9.49
527.099	8.94
527.299	8.22
527.499	8.89
527.7	8.24
527.9	8.66
528.1	8.18
528.3	8.51
528.5	7.82
528.7	7.54
528.9	7.65
529.1	7.73
529.3	7.34
529.5	7.62
529.7	7.23
529.9	6.96
530.1	7.35
530.3	6.74
530.5	7.36
530.7	7.38
530.9	6.71
531.1	7.51
531.3	6.71
531.499	6.36
531.699	6.47
531.899	5.88
532.099	6.03
532.298	5.95
532.498	6.28
532.698	6.57
532.897	5.96
533.097	5.95
533.297	6.04
533.496	5.98
533.696	4.95
533.895	5.42
534.095	5.79
534.294	5.76
534.494	5.22
534.693	5.05
534.893	5.22
535.092	4.83
535.292	5.16
535.491	5.34
535.69	4.64
535.89	4.21
536.089	4.87
536.288	4.39
536.488	4.3
536.687	4.8
536.886	4.32
537.085	4.54
537.285	4.13
537.484	4.46
537.683	4.67
537.882	4.3
538.081	4.34
538.28	4.41
538.479	3.74
538.678	3.81
538.877	4.14
539.076	3.84
539.275	4.22
539.474	4.08
539.673	4.07
539.872	3.56
540.071	3.88
540.27	4.12
540.469	4.09
540.668	3.66
540.867	3.43
541.065	3.88
541.264	3.6
541.463	3.4
541.662	3.24
541.861	3.42
542.059	3.41
542.258	3.5
542.457	3.48
542.655	3.14
542.854	3.33
543.052	3.6
543.251	3.15
543.45	3.34
543.648	3.23
543.847	3.42
544.045	2.91
544.244	3.02
544.442	3.02
544.641	2.98
544.839	3.1
545.037	3.11
545.236	3.31
545.434	3.16
545.632	2.86
545.831	3.4
546.029	2.74
546.227	2.64
546.426	2.7
546.624	2.88
546.822	2.9
547.02	2.71
547.218	2.72
547.417	2.54
547.615	2.37
547.813	2.85
548.011	2.94
548.209	3.05
548.407	2.66
548.605	2.65
548.803	2.57
549.001	2.54
549.199	2.57
549.397	2.6
549.595	2.56
549.793	2.63
549.991	2.81
550.189	2.53
550.387	2.55
550.584	2.64
550.782	2.63
550.98	2.43
551.178	2.39
551.376	2.45
551.573	2.38
551.771	2.57
551.969	2.77
552.166	2.21
552.364	2
552.562	2.12
552.759	2.48
552.957	2.15
553.154	2.41
553.352	2.29
553.55	2.45
553.747	1.96
553.945	2.15
554.142	2.15
554.339	2.27
554.537	2.24
554.734	2.37
554.932	2.15
555.129	2.13
555.326	2.12
555.524	2.21
555.721	2.14
555.918	2.26
556.116	2
556.313	2.18
556.51	2.15
556.707	2.34
556.904	1.93
557.102	1.88
557.299	1.91
557.496	1.95
557.693	2.37
557.89	2
558.087	2.11
558.284	1.95
558.481	2.09
558.678	1.92
558.875	2.04
559.072	1.87
559.269	1.91
559.466	2.02
559.663	1.91
559.86	2.22
560.057	2.15
560.254	1.74
560.45	1.74
560.647	1.92
560.844	1.93
561.041	2.07
561.237	1.63
561.434	1.78
561.631	2.1
561.828	1.73
562.024	1.59
562.221	1.54
562.418	2.07
562.614	1.81
562.811	1.79
563.007	1.67
563.204	2.01
563.4	2.19
563.597	1.99
563.793	1.64
563.99	1.77
564.186	1.69
564.383	1.97
564.579	1.8
564.775	1.88
564.972	2
565.168	1.81
565.365	1.82
565.561	1.83
565.757	1.72
565.953	1.63
566.15	1.74
566.346	1.56
566.542	1.9
566.738	2.09
566.934	1.88
567.131	1.58
567.327	1.94
567.523	1.6
567.719	1.59
567.915	1.68
568.111	1.82
568.307	1.9
568.503	1.92
568.699	1.86
568.895	1.82
569.091	1.79
569.287	2.03
569.483	1.56
569.679	1.68
569.875	1.64
570.07	1.83
570.266	1.73
570.462	2.01
570.658	1.55
570.854	1.44
571.049	1.77
571.245	1.52
571.441	1.89
571.636	1.68
571.832	1.62
572.028	1.79
572.223	1.56
572.419	1.45
572.615	1.75
572.81	1.91
573.006	1.36
573.201	1.86
573.397	1.66
573.592	1.82
573.788	1.7
573.983	1.46
574.179	1.53
574.374	1.6
574.569	1.72
574.765	1.7
574.96	1.52
575.156	1.8
575.351	1.52
575.546	1.75
575.741	1.7
575.937	1.74
576.132	1.63
576.327	1.54
576.522	1.56
576.718	1.7
576.913	1.7
577.108	1.67
577.303	1.94
577.498	1.23
577.693	1.64
577.888	1.63
578.083	1.54
578.278	1.56
578.473	1.77
578.668	1.57
578.863	1.44
579.058	1.53
579.253	1.68
579.448	1.69
579.643	1.71
579.838	1.52
580.033	1.4
580.227	1.5
580.422	1.75
580.617	1.53
580.812	1.6
581.006	1.65
581.201	1.71
581.396	1.45
581.591	1.71
581.785	1.68
581.98	1.72
582.175	1.71
582.369	1.83
582.564	1.49
582.758	1.92
582.953	1.61
583.147	1.67
583.342	1.85
583.536	1.58
583.731	1.66
583.925	1.84
584.12	1.8
584.314	1.62
584.509	1.83
584.703	1.66
584.897	1.64
585.092	1.76
585.286	1.72
585.48	1.69
585.674	1.55
585.869	1.71
586.063	1.75
586.257	1.5
586.451	1.65
586.646	1.86
586.84	1.83
587.034	1.49
587.228	1.37
587.422	1.54
587.616	1.48
587.81	1.63
588.004	1.53
588.198	1.85
588.392	1.5
588.586	1.85
588.78	1.71
588.974	1.44
589.168	1.38
589.362	1.97
589.556	1.59
589.75	1.58
589.944	1.86
590.137	1.72
590.331	1.8
590.525	1.94
590.719	1.82
590.913	1.82
591.106	1.99
591.3	1.62
591.494	1.91
591.687	1.76
591.881	1.8
592.075	1.83
592.268	1.64
592.462	1.66
592.655	1.55
592.849	1.61
593.043	1.8
593.236	1.88
593.43	1.64
593.623	1.52
593.817	1.85
594.01	1.52
594.203	1.86
594.397	1.51
594.59	1.71
594.784	1.77
594.977	1.56
595.17	1.72
595.364	1.37
595.557	1.75
595.75	1.96
595.943	1.9
596.137	1.78
596.33	1.48
596.523	2.07
596.716	1.94
596.909	2.19
597.102	2.1
597.296	1.76
597.489	1.91
597.682	1.72
597.875	1.79
598.068	1.73
598.261	1.74
598.454	1.89
598.647	1.75
598.84	1.79
599.033	1.71
599.226	1.99
599.419	1.77
599.611	2.03
599.804	1.82
599.997	1.64
600.19	1.69
600.383	1.81
600.576	1.94
600.768	1.74
600.961	1.73
601.154	1.8
601.347	1.89
601.539	1.96
601.732	2.09
601.925	1.87
602.117	2.12
602.31	1.8
602.502	1.96
602.695	1.96
602.888	1.99
603.08	1.74
603.273	1.81
603.465	1.83
603.658	2.08
603.85	1.96
604.043	1.71
604.235	2.01
604.427	1.9
604.62	1.86
604.812	1.93
605.004	2.17
605.197	1.89
605.389	2
605.581	1.97
605.774	1.97
605.966	2.11
606.158	1.91
606.35	2.14
606.543	1.83
606.735	2.11
606.927	1.83
607.119	2.06
607.311	2.17
607.503	1.95
607.695	1.95
607.887	2.41
608.079	2.24
608.271	2.27
608.463	1.9
608.655	2.23
608.847	2.13
609.039	2.12
609.231	2.22
609.423	1.96
609.615	2.24
609.807	2.02
609.999	2.34
610.191	2.37
610.382	2.36
610.574	2.15
610.766	2.25
610.958	2.2
611.15	2.15
611.341	2.22
611.533	2.33
611.725	2.21
611.916	2.39
612.108	2.39
612.3	2.38
612.491	2.46
612.683	2.41
612.874	2.19
613.066	2.29
613.257	2.43
613.449	2.6
613.64	2.19
613.832	2.47
614.023	2.35
614.215	2.26
614.406	2.36
614.598	2.33
614.789	2.29
614.98	2.52
615.172	2.59
615.363	2.34
615.554	2.5
615.746	2.09
615.937	2.41
616.128	2.48
616.319	2.45
616.511	2.14
616.702	2.65
616.893	2.43
617.084	2.37
617.275	2.53
617.466	2.53
617.658	2.57
617.849	2.35
618.04	2.38
618.231	2.39
618.422	2.64
618.613	2.6
618.804	2.71
618.995	2.8
619.186	2.68
619.377	2.46
619.568	2.53
619.758	2.68
619.949	2.72
620.14	2.43
620.331	2.63
620.522	2.58
620.713	2.62
620.903	2.81
621.094	2.68
621.285	2.68
621.476	2.73
621.666	2.59
621.857	2.7
622.048	3.02
622.238	2.72
622.429	3.26
622.62	3.02
622.81	3.04
623.001	2.99
623.191	3.01
623.382	2.79
623.572	3.06
623.763	3.14
623.953	2.82
624.144	2.8
624.334	2.96
624.525	3.12
624.715	3.16
624.905	3.25
625.096	3.26
625.286	3
625.477	3.07
625.667	3.41
625.857	3.06
626.047	3.11
626.238	3.2
626.428	3.25
626.618	3.43
626.808	3.19
626.999	3.03
627.189	3.43
627.379	3.3
627.569	3.34
627.759	3.38
627.949	3.43
628.139	3.25
628.329	3.29
628.519	3.59
628.709	3.41
628.899	3.32
629.089	3.05
629.279	3.46
629.469	3.41
629.659	3.33
629.849	3.42
630.039	3.42
630.229	3.67
630.419	3.58
630.609	3.56
630.798	3.43
630.988	3.57
631.178	3.49
631.368	3.62
631.557	3.81
631.747	3.73
631.937	3.6
632.127	3.76
632.316	3.76
632.506	3.63
632.696	3.97
632.885	3.83
633.075	3.71
633.264	3.91
633.454	3.93
633.643	4.07
633.833	3.8
634.022	3.91
634.212	3.92
634.401	4.01
634.591	4.21
634.78	3.97
634.97	3.96
635.159	3.94
635.348	3.81
635.538	4.11
635.727	3.72
635.916	4.32
636.106	4.12
636.295	4.11
636.484	4.13
636.674	4.11
636.863	4.05
637.052	4.14
637.241	4.05
637.43	4.28
637.619	4.25
637.809	4.31
637.998	4.6
638.187	4.33
638.376	4.27
638.565	4.56
638.754	4.55
638.943	4.59
639.132	4.54
639.321	4.57
639.51	4.3
639.699	4.34
639.888	4.43
640.077	4.31
640.266	4.74
640.455	4.75
640.643	4.71
640.832	4.4
641.021	4.59
641.21	4.61
641.399	4.61
641.587	4.9
641.776	4.92
641.965	4.85
642.154	5.1
642.342	4.75
642.531	4.84
642.72	4.88
642.908	4.97
643.097	4.86
643.286	5.2
643.474	5.29
643.663	5.49
643.851	5.2
644.04	5.09
644.228	4.97
644.417	5.07
644.605	5.35
644.794	5.04
644.982	5.2
645.171	5.43
645.359	5.28
645.547	5.45
645.736	5.46
645.924	5.13
646.112	5.13
646.301	5.21
646.489	5.34
646.677	5.3
646.866	5.42
647.054	5.5
647.242	5.42
647.43	5.66
647.618	5.55
647.807	5.71
647.995	5.81
648.183	5.98
648.371	5.48
648.559	5.51
648.747	5.71
648.935	6
649.123	6.05
649.311	5.89
649.499	6.24
649.687	6.14
649.875	5.75
650.063	5.84
650.251	6.21
650.439	6.01
650.627	6.08
650.815	6.16
651.003	6.26
651.191	5.99
651.378	6.17
651.566	6.07
651.754	6.34
651.942	6.46
652.13	6.61
652.317	6.78
652.505	6.95
652.693	6.64
652.88	6.72
653.068	6.6
653.256	6.73
653.443	6.65
653.631	7.14
653.819	6.68
654.006	6.77
654.194	6.85
654.381	7.15
654.569	6.81
654.756	7.12
654.944	7
655.131	6.98
655.319	7.14
655.506	7.39
655.693	7.2
655.881	7.34
656.068	7.02
656.256	7.58
656.443	7.48
656.63	7.66
656.818	7.52
657.005	7.59
657.192	7.49
657.379	7.55
657.567	7.68
657.754	7.59
657.941	7.84
658.128	7.58
658.315	7.57
658.502	7.74
658.69	7.49
658.877	7.74
659.064	7.89
659.251	8.34
659.438	8.16
659.625	8.24
659.812	8.43
659.999	8.06
660.186	8.28
660.373	8.08
660.56	8.28
660.747	8.42
660.934	8.61
661.121	8.76
661.308	8.63
661.494	8.49
661.681	8.46
661.868	8.8
662.055	8.9
662.242	8.64
662.428	8.89
662.615	9.35
662.802	9.44
662.989	9.3
663.175	9.52
663.362	9.73
663.549	9.39
663.735	9.53
663.922	9.81
664.109	9.55
664.295	9.67
664.482	10.17
664.668	9.51
664.855	9.75
665.041	9.58
665.228	9.48
665.414	9.93
665.601	10.13
665.787	9.94
665.974	9.89
666.16	9.8
666.347	9.81
666.533	10.12
666.719	10.01
666.906	9.83
667.092	10.24
667.278	10.08
667.465	10.35
667.651	10.08
667.837	10.68
668.023	10.38
668.21	10.42
668.396	10.26
668.582	10.5
668.768	10.32
668.954	10.27
669.14	10.48
669.327	10.74
669.513	11.22
669.699	11.29
669.885	10.96
670.071	11.05
670.257	11.5
670.443	11.37
670.629	11.12
670.815	11.2
671.001	11.11
671.187	11.09
671.373	11.35
671.559	11.25
671.744	11.48
671.93	11.58
672.116	11.74
672.302	12.12
672.488	12.14
672.674	12.28
672.859	12.43
673.045	12.23
673.231	11.82
673.417	12.22
673.602	11.89
673.788	12.09
673.974	11.91
674.159	12.01
674.345	11.87
674.531	12.53
674.716	12.44
674.902	12.44
675.087	12.81
675.273	12.59
675.459	13.02
675.644	12.61
675.83	12.69
676.015	12.85
676.2	12.52
676.386	12.59
676.571	12.88
676.757	13.05
676.942	12.98
677.128	12.88
677.313	12.9
677.498	13.04
677.684	12.84
677.869	13.08
678.054	13.51
678.24	13.48
678.425	13.45
678.61	13.4
678.795	13.82
678.98	13.91
679.166	13.43
679.351	13.55
679.536	14.06
679.721	13.73
679.906	14.08
680.091	13.5
680.276	13.95
680.461	14.19
680.647	13.97
680.832	13.91
681.017	14.31
681.202	14.12
681.387	14.17
681.572	14.21
681.756	14.56
681.941	14.21
682.126	14.09
682.311	14.31
682.496	14.23
682.681	14.28
682.866	14.21
683.051	14.59
683.235	14.63
683.42	14.63
683.605	14.61
683.79	14.99
683.974	14.69
684.159	14.66
684.344	14.91
684.529	15.38
684.713	15.08
684.898	15.42
685.083	14.71
685.267	14.84
685.452	15.42
685.636	15.54
685.821	15.41
686.005	15.48
686.19	15.72
686.375	15.85
686.559	15.71
686.744	15.46
686.928	15.22
687.112	14.91
687.297	15.04
687.481	15.09
687.666	15.16
687.85	14.59
688.034	15.37
688.219	15.18
688.403	15.68
688.587	15.25
688.772	15.54
688.956	15.4
689.14	15.67
689.324	16.14
689.509	15.92
689.693	15.77
689.877	15.66
690.061	15.82
690.245	15.74
690.43	15.76
690.614	15.71
690.798	15.41
690.982	15.59
691.166	16.11
691.35	15.88
691.534	15.56
691.718	15.77
691.902	15.41
692.086	15.44
692.27	15.93
692.454	15.49
692.638	16.18
692.822	16.5
693.006	16.59
693.19	16.92
693.373	16.55
693.557	16.49
693.741	16.68
693.925	16.61
694.109	16.36
694.293	16.32
694.476	16.03
694.66	16.87
694.844	16.26
695.027	16.51
695.211	16.51
695.395	16.51
695.578	16.49
695.762	16.37
695.946	16.88
696.129	16.24
696.313	16.25
696.497	16.31
696.68	16.55
696.864	16.66
697.047	16.48
697.231	16.17
697.414	16.33
697.598	16.14
697.781	15.55
697.965	15.94
698.148	16.18
698.331	15.58
698.515	16.43
698.698	16.56
698.881	16.54
699.065	16.17
699.248	16.89
699.431	16.62
699.615	16.67
699.798	16.97
699.981	16.65
700.165	16.75
700.348	16.84
700.531	17.06
700.714	16.17
700.897	16.16
701.08	16.33
701.264	16.14
701.447	16.4
701.63	16.52
701.813	16.67
701.996	16.44
702.179	16.67
702.362	16.69
702.545	16.29
702.728	16.81
702.911	17.04
703.094	16.64
703.277	17.08
703.46	17.19
703.643	17.41
703.826	16.76
704.009	16.48
704.191	16.31
704.374	16.33
704.557	16.68
704.74	16.54
704.923	16.5
705.106	16.15
705.288	16.35
705.471	16.41
705.654	15.99
705.837	16.01
706.019	16.38
706.202	16.63
706.385	16.63
706.567	16.11
706.75	15.95
706.932	15.88
707.115	15.94
707.298	15.76
707.48	16.09
707.663	15.91
707.845	16.43
708.028	16.08
708.21	15.95
708.393	16.61
708.575	17.01
708.758	16.21
708.94	16.46
709.123	17.02
709.305	16.9
709.487	16.4
709.67	16.41
709.852	16.23
710.034	16.53
710.217	16.19
710.399	16.95
710.581	16.87
710.764	16.46
710.946	16.26
711.128	16.08
711.31	15.89
711.492	15.75
711.675	16.28
711.857	15.88
712.039	16.35
712.221	16.17
712.403	16.46
712.585	15.97
712.767	16.06
712.949	16.13
713.131	16.22
713.314	16.28
713.496	16.6
713.678	16.5
713.86	16.25
714.041	15.91
714.223	16.12
714.405	15.82
714.587	15.73
714.769	15.58
714.951	16.14
715.133	16.04
715.315	16.38
715.497	17.22
715.678	16.45
715.86	16.35
716.042	16.17
716.224	15.96
716.406	16.04
716.587	16.45
716.769	15.95
716.951	16.02
717.132	15.74
717.314	15.92
717.496	15.87
717.677	16.28
717.859	16.23
718.041	16.24
718.222	15.25
718.404	15.14
718.585	15.93
718.767	15.11
718.948	15.77
719.13	16.06
719.311	15.82
719.493	15.91
719.674	16.2
719.856	15.72
720.037	15.41
720.219	15.73
720.4	16
720.581	15.8
720.763	16.06
720.944	15.8
721.125	16.3
721.307	15.6
721.488	15.75
721.669	15.65
721.85	15.21
722.032	15.69
722.213	15.33
722.394	16.05
722.575	15.75
722.756	15.1
722.938	15.62
723.119	15.32
723.3	15.17
723.481	15.58
723.662	15.4
723.843	14.75
724.024	15.44
724.205	15.27
724.386	15.81
724.567	15.28
724.748	15.12
724.929	15.85
725.11	15.68
725.291	16.18
725.472	16
725.653	16.4
725.834	16.11
726.015	16.13
726.196	15.5
726.377	14.96
726.557	15.23
726.738	15.55
726.919	15.37
727.1	15.38
727.281	15.57
727.461	15.89
727.642	15.32
727.823	15.08
728.004	15.12
728.184	16.48
728.365	16.32
728.546	15.37
728.726	15
728.907	15.05
729.087	14.77
729.268	15.11
729.449	14.74
729.629	14.74
729.81	15.09
729.99	14.71
730.171	14.69
730.351	14.54
730.532	14.68
730.712	14.38
730.893	14.66
731.073	14.51
731.253	14.45
731.434	14.85
731.614	14.61
731.795	14.16
731.975	14.55
732.155	14.43
732.336	14.67
732.516	14.98
732.696	15.14
732.876	14.7
733.057	14.45
733.237	13.79
733.417	13.83
733.597	13.52
733.778	14.16
733.958	14.24
734.138	14.15
734.318	14.34
734.498	14.26
734.678	13.35
734.858	14.28
735.038	14.4
735.218	14.69
735.398	14.56
735.579	14.87
735.759	14.6
735.939	14.37
736.119	15.27
736.298	14.75
736.478	15.27
736.658	14.73
736.838	14.64
737.018	15.07
737.198	14.46
737.378	14.88
737.558	14.81
737.738	15.04
737.917	14.94
738.097	14.32
738.277	14.84
738.457	14.54
738.637	13.9
738.816	14.42
738.996	14.48
739.176	13.95
739.355	14.4
739.535	13.74
739.715	14.69
739.894	14.02
740.074	14.1
740.254	14.08
740.433	13.91
740.613	13.9
740.792	13.92
740.972	14.6
741.151	13.55
741.331	13.75
741.51	13.99
741.69	14.25
741.869	15.2
742.049	14.32
742.228	14.87
742.408	14
742.587	15.3
742.766	14.43
742.946	14.69
743.125	14.1
743.305	14.69
743.484	13.73
743.663	14.36
743.842	14.55
744.022	14.1
744.201	13.91
744.38	13.64
744.56	14.24
744.739	13.42
744.918	14.08
745.097	14.13
745.276	14.2
745.455	14.09
745.635	14.16
745.814	14.07
745.993	13.95
746.172	13.73
746.351	14.14
746.53	14.43
746.709	14.3
746.888	14.61
747.067	14.03
747.246	13.73
747.425	13.95
747.604	13.95
747.783	14.49
747.962	14.18
748.141	14.56
748.32	14.6
748.499	14.82
748.677	13.93
748.856	13.9
749.035	14.13
749.214	14.12
749.393	14.87
749.572	13.67
749.75	13.89
749.929	14.86
750.108	14.3
750.287	14.51
750.465	14.05
750.644	14.42
750.823	14.17
751.001	13.61
751.18	14.28
751.359	13.4
751.537	13.82
751.716	13.33
751.894	12.65
752.073	13.26
752.251	13.44
752.43	14.22
752.609	14.01
752.787	14.03
752.966	13.76
753.144	14.16
753.322	13.59
753.501	13.37
753.679	13.8
753.858	13.12
754.036	13.12
754.215	13.02
754.393	12.94
754.571	13.1
754.75	13.26
754.928	12.9
755.106	12.8
755.284	13.29
755.463	13.97
755.641	13.35
755.819	13.75
755.997	14.39
756.176	14.13
756.354	14.2
756.532	14.49
756.71	14.17
756.888	14.04
757.066	14.39
757.245	14.26
757.423	13.1
757.601	13.26
757.779	12.69
757.957	13.76
758.135	13.4
758.313	14.14
758.491	13.92
758.669	13.62
758.847	13.65
759.025	13.75
759.203	13.16
759.381	13.77
759.559	13.55
759.737	13.45
759.915	13.09
760.092	13.35
760.27	13.33
760.448	13.6
760.626	13.55
760.804	13.58
760.981	13.16
761.159	13.05
761.337	14.05
761.515	13.67
761.692	13.52
761.87	13.46
762.048	12.35
762.226	13.36
762.403	12.72
762.581	13.18
762.759	13.3
762.936	13.63
763.114	13.67
763.291	14.11
763.469	13.4
763.647	13.61
763.824	14.09
764.002	14.21
764.179	13.66
764.357	13.32
764.534	13.36
764.712	13.33
764.889	12.54
765.066	13.33
765.244	12.43
765.421	12.32
765.599	13.47
765.776	12.28
765.953	13.08
766.131	13.54
766.308	12.96
766.485	13.76
766.663	12.89
766.84	12.9
767.017	12.93
767.194	13.56
767.372	13.5
767.549	12.75
767.726	13.8
767.903	12.96
768.081	12.71
768.258	13.19
768.435	13.46
768.612	13.79
768.789	13.23
768.966	13.32
769.143	13.53
769.32	13.49
769.497	13.77
769.674	12.27
769.851	13.25
770.028	12.12
770.205	13.17
770.382	13.03
770.559	13.54
770.736	13.72
770.913	13.39
771.09	13.92
771.267	12.81
771.444	13.87
771.621	12.46
771.798	12.69
771.975	13.82
772.151	13.96
772.328	14.52
772.505	13.56
772.682	13.62
772.859	13.58
773.035	13.37
773.212	12.15
773.389	13.06
773.565	13.74
773.742	13.61
773.919	12.95
774.096	12.31
774.272	12.91
774.449	12.62
774.625	12.82
774.802	12.08
774.979	13.12
775.155	13.2
775.332	12.27
775.508	13.94
775.685	13.15
775.861	12.38
776.038	13.5
776.214	11.43
776.391	12.25
776.567	12.42
776.744	14.42
776.92	13.08
777.096	12.83
777.273	13.28
777.449	13.34
777.626	11.56
777.802	12.02
777.978	13.33
778.155	11.74
778.331	12.61
778.507	12.17
778.683	11.22
778.86	12.1
779.036	13.06
779.212	12.29
779.388	12.26
779.565	13.06
779.741	11.7
779.917	13.35
780.093	10.79
780.269	13.16
780.445	11.74
780.621	12.37
780.797	12.19
780.974	11.8
781.15	11.65
781.326	12.16
781.502	10.86
781.678	12.14
781.854	12.89
782.03	12.81
782.206	11.59
782.382	11.77
782.558	13.11
782.733	12.08
782.909	13.68
783.085	13.39
783.261	12.89
783.437	12.34
783.613	11.75
783.789	12.05
783.965	11.4
784.14	11.79
784.316	11.95
784.492	11.96
784.668	11.91
784.843	11.87
785.019	12.34
785.195	10.85
785.371	13
785.546	11.49
785.722	13.59
785.898	11.51
786.073	11.75
786.249	12.36
786.424	11.96
786.6	11.2
786.776	11.32
786.951	11.5
787.127	13.63
787.302	12.17
787.478	12.95
787.653	11.38
787.829	11.43
788.004	12.5
788.18	12.96
788.355	12.08
788.531	11.35
788.706	12.76
788.881	10.99
789.057	10.78
789.232	11.98
789.408	12.71
789.583	12.33
789.758	11.72
789.934	11.12
790.109	10.64
790.284	12.91
790.459	11.25
790.635	12.64
790.81	12.22
790.985	13.11
791.16	12.38
791.336	12.82
791.511	11.47
791.686	12.5
791.861	11.78
792.036	14.09
792.211	10.72
792.387	11.41
792.562	10.17
792.737	12.17
792.912	10.77
793.087	11.58
793.262	11.38
793.437	11.9
793.612	10.43
793.787	13.01
793.962	10.83
794.137	11.56
794.312	10.93
794.487	12.9
794.662	12.23
794.837	12.42
795.011	10.94
795.186	11.98
795.361	11.78
795.536	10.97
795.711	9.64
795.886	10.83
796.06	11.71
796.235	10.48
796.41	9.55
796.585	9.62
796.76	12.55
796.934	11.02
797.109	14.73
797.284	8.43
797.458	9.44
797.633	13.52
797.808	8.9
797.982	12.12
798.157	11.96
798.332	9.84
798.506	13.73
798.681	11.09
798.855	12.25
799.03	15.27
799.204	11.99
799.379	10.75
799.553	10.98
799.728	10.51
799.902	11.18
800.077	10.71
800.251	10.85
800.426	10.64
800.6	13.37
800.775	13.38
800.949	11.3
801.123	12.52
801.298	14.13
801.472	13.72
801.647	11.14
801.821	11.46
801.995	10.78
802.169	12.82
802.344	13.25
802.518	13.81
802.692	9.48
802.867	13.24
803.041	11.28
803.215	8.89
803.389	13.56
803.563	8.95
803.737	11.36
803.912	10.25
804.086	11.63
804.26	8.82
804.434	12.24
804.608	9.76
804.782	11.37
804.956	11.07
805.13	9.45
805.304	8.68
805.478	12
805.652	12.53
805.826	12.63
806	8.41
806.174	13.81
806.348	12.29
806.522	14.39
806.696	10.63
806.87	12.9
807.044	10.38
807.218	14.4
807.392	12.46
807.566	11.16
807.739	12.27
807.913	10.82
808.087	15.52
808.261	12.02
808.435	10.23
808.608	9.24
808.782	7.11
808.956	6.68
809.13	9.22
809.303	14.48
809.477	12.39
809.651	12.93
809.824	7.39
809.998	10.11
810.172	13.93
810.345	13.63
810.519	9.87
810.692	9.09
810.866	10.1
811.04	7.46
811.213	11.02
811.387	7.86
811.56	11.25
811.734	14.68
811.907	13.86
812.081	13.36
812.254	11.4
812.428	10.83
812.601	12.38
812.774	13.58
812.948	12.05
813.121	14.1
813.295	12.95
813.468	13.67
813.641	6.12
813.815	10.8
813.988	13.39
814.161	11.91
814.335	14.45
814.508	10.66
814.681	10.28
814.854	12.86
815.028	8.86
815.201	8.65
815.374	13.06
815.547	11.97
815.72	8.54
815.894	11.96
816.067	10.82
816.24	13.08
816.413	9.22
816.586	10.46
816.759	13.93
816.932	7.49
817.105	14.16
817.278	11.68
817.452	7.76
817.625	12.79
817.798	10.29
817.971	10.39
818.144	9.78
818.317	13.11
818.49	9.7
818.662	12.52
818.835	14.38
819.008	10.16
819.181	11.62
819.354	14.78
819.527	14.05
819.7	5.45
819.873	11.58
820.046	12.74
820.218	12.43
820.391	11.45
820.564	11.96
820.737	12.13
820.909	15.99
821.082	8.02
821.255	11.94
821.428	11.93
821.6	12.92
821.773	11.43
821.946	9.69
822.118	9.06
822.291	13.78
822.464	8.62
822.636	12.8
822.809	13.57
822.982	12.46
823.154	12.98
823.327	14.02
823.499	9.25
823.672	14.57
823.844	7.41
824.017	11.74
824.189	11.96
824.362	10.1
824.534	11.03
824.707	12.53
824.879	10.76
825.052	7.77
825.224	12.07
825.396	9.69
825.569	11.42
825.741	8.78
825.914	9.79
826.086	10.76
826.258	9.17
826.431	13.68
826.603	10.57
826.775	12.17
826.947	10.62
827.12	12.76
827.292	14.79
827.464	10.33
827.636	13.14
827.809	11.26
827.981	9.93
828.153	10.57
828.325	9.37
828.497	10.45
828.669	8.92
828.842	3.42
829.014	7.01
829.186	11.83
829.358	10.94
829.53	12.01
829.702	8.75
829.874	11.14
830.046	12.35
830.218	14.44
830.39	10.34
830.562	14.86
830.734	10.68
830.906	7.48
831.078	10.08
831.25	11.44
831.422	7.08
831.594	13.47
831.766	10.99
831.937	10.04
832.109	12.76
832.281	12.48
832.453	7.16
832.625	12.69
832.797	11.06
832.968	13.38
833.14	10.94
833.312	9.3
833.484	15.07
833.655	9.33
833.827	7.72
833.999	7.19
834.171	10.27
834.342	13.9
834.514	12.06
834.686	11.82
834.857	9.19
835.029	6.18
835.2	11.46
835.372	10.51
835.544	12.44
835.715	9
835.887	10.12
836.058	9.69
836.23	12.04
836.401	13.73
836.573	10.42
836.744	10.88
836.916	8.73
837.087	10.73
837.259	10.19
837.43	8.92
837.602	9.21
837.773	11.27
837.945	10.5
838.116	8.77
838.287	6.23
838.459	11.82
838.63	12.39
838.801	13.21
838.973	9.09
839.144	7.69
839.315	11.92
839.487	11.18
839.658	12.48
839.829	9.97
840	9.11
840.172	11.16
840.343	7.06
840.514	8.3
840.685	9.68
840.856	7.71
841.027	14.15
841.199	9.48
841.37	9.9
841.541	6.46
841.712	14.01
841.883	10.6
842.054	6.22
842.225	12.39
842.396	13.79
842.567	5.75
842.738	10.08
842.909	13.29
843.08	7.98
843.251	13.99
843.422	13.9
843.593	6.32
843.764	8.1
843.935	14.25
844.106	8.57
844.277	11.92
844.448	15.11
844.619	10.88
844.79	12.71
844.96	10.38
845.131	11.32
845.302	11.22
845.473	11.56
845.644	10.54
845.814	9.4
845.985	6.92
846.156	8.42
846.327	5.43
846.497	6.33
846.668	7.62
846.839	7.16
847.01	10.52
847.18	9.42
847.351	13.49
847.522	12.88
847.692	11.74
847.863	8.89
848.033	8.26
848.204	10.1
848.375	8.02
848.545	10.66
848.716	13.67
848.886	10.52
849.057	9.45
849.227	12.05
849.398	5.81
849.568	11.8
849.739	9.59
849.909	7.81
850.08	13.16
850.25	9.78
850.421	9.64
850.591	7.28
850.761	7.63
850.932	7.33
851.102	2.37
851.272	7.11
851.443	13.26
851.613	7.09
851.783	10.98
851.954	4.65
852.124	16.91
852.294	6.35
852.465	9.19
852.635	9.93
852.805	5.56
852.975	9.46
853.145	5.54
853.316	8.29
853.486	4.16
853.656	10.28
853.826	9.93
853.996	4.51
854.166	8.91
854.337	6.83
854.507	12.13
854.677	14.06
854.847	9.46
855.017	6.23
855.187	12.31
855.357	2.19
855.527	10.05
855.697	2.97
855.867	5.35
856.037	8.71
856.207	9.33
856.377	10.49
856.547	13.42
856.717	11.11
856.887	11.27
857.057	13.77
857.227	6.63
857.397	17.71
857.566	11.26
857.736	4.51
857.906	7.26
858.076	14.28
858.246	10.68
858.416	11.26
858.585	4.66
858.755	4.59
858.925	13.96
859.095	12.43
859.264	12.79
859.434	3.23
859.604	6.56
859.774	8.3
859.943	14.76
860.113	9
860.283	10.95
860.452	8.87
860.622	8.51
860.791	6.07
860.961	5.95
861.131	9.07
861.3	10.14
861.47	8.06
861.639	1
861.809	11.7
861.978	9.42
862.148	8.49
862.318	15.77
862.487	3.8
862.657	0.71
862.826	6.03
862.995	-0.63
863.165	13
863.334	2.4
863.504	9.78
863.673	16.11
863.843	8.2
864.012	11.78
864.181	4.35
864.351	15.8
864.52	-0.98
864.689	11.42
864.859	1.86
865.028	9.48
865.197	2.53
865.366	16.95
865.536	7.38
865.705	14.91
865.874	5.14
866.043	8.08
866.213	10.74
866.382	6.83
866.551	4.46
866.72	15.33
866.889	9.81
867.059	-0.4
867.228	6.8
867.397	4.88
867.566	-0.82
867.735	7.3
867.904	14.34
868.073	12.07
868.242	9.42
868.411	7.49
868.58	0.03
868.749	9.04
868.918	7.3
869.087	9.91
869.256	4.34
869.425	4.98
869.594	6.65
869.763	-0.38
869.932	13.85
870.101	-2.96
870.27	0.73
870.439	3.69
870.608	1.98
870.777	3.93
870.945	5.2
871.114	13.66
871.283	1.77
871.452	3.8
871.621	11.16
871.789	6.74
871.958	5.86
872.127	2.68
872.296	-4.77
872.464	15.07
872.633	9.08
872.802	8.3
872.971	9.49
873.139	3.27
873.308	2.39
873.477	4.22
873.645	13.02
873.814	11.17
873.983	-11.29
874.151	-2.53
874.32	6.92
874.488	1.22
874.657	16.24
874.826	10.03
874.994	13.52
875.163	5.16
875.331	12.14
875.5	13.88
875.668	21.47
875.837	4.26
876.005	3.28
876.174	10.63
876.342	15.58
876.51	12.35
876.679	6.85
876.847	14.7
877.016	-0.77
877.184	-1.37
877.352	6.78
877.521	10.01
877.689	9.1
877.857	8.19
878.026	11.42
878.194	21.07
878.362	11.08
878.531	1.92
878.699	5.84
878.867	11.47
879.036	-0.23
879.204	12.25
879.372	4.16
879.54	-1
879.708	17.55
879.877	14.24
880.045	16.9
880.213	2.26
880.381	15.2
880.549	8.16
880.717	6.25
880.885	15.72
881.054	-0.25
881.222	18.18
881.39	4.31
881.558	8.32
881.726	0.37
881.894	9.13
882.062	25.33
882.23	9.67
882.398	13.58
882.566	7.97
882.734	-4.63
882.902	15.71
883.07	7.4
883.238	7.57
883.406	1.59
883.574	-9.83
883.741	12.32
883.909	4.58
884.077	11.96
884.245	16.32
884.413	-2.99
884.581	9.55
884.749	3.35
884.916	-4.57
885.084	15.05
885.252	-2.72
885.42	15.21
885.587	15.83
885.755	13.49
885.923	14.32
886.091	-0.9
886.258	14.69
886.426	-4.6
886.594	-2.44
886.761	10.89
886.929	4.13
887.097	8.15
887.264	-4.34
887.432	10.62
887.6	-0.66
887.767	5.26
887.935	10.36
888.102	13.35
888.27	6.05
888.438	4.38
888.605	-14.06
888.773	1.95
888.94	12.64
889.108	-13.84
889.275	2.74
889.443	11.18
889.61	5.39
889.778	3.04
889.945	-10.73
890.112	-1
890.28	8.04
890.447	18.61
890.615	18.27
890.782	8.85
890.949	5.5
891.117	-6.33
891.284	23.35
891.452	-20.88
891.619	12.17
891.786	1.03
891.953	9.56
892.121	10.37
892.288	23.84
892.455	14.7
892.623	14.4
892.79	16.64
892.957	2.78
893.124	15.15
893.291	9.04
893.459	9.97
893.626	7.66
893.793	0.46
893.96	9.94
894.127	7.87
894.294	0.7
894.461	-13.05
894.629	24.81
894.796	-7.33
894.963	7.01
895.13	17.9
895.297	5.52
895.464	21.2
895.631	-5.01
895.798	11.6
895.965	4.63
896.132	-1.42
896.299	5.11
896.466	8.38
896.633	15.56
896.8	-5.26
896.967	18.95
897.134	-3.79
897.301	6.23
897.467	7.8
897.634	9.32
897.801	5.06
897.968	11.78
898.135	5.89
898.302	2.24
898.469	14.05
898.635	19.52
898.802	13.97
898.969	-0.31
899.136	6.71
899.303	13.02
