Data from x0_Transmission_15-15-17-294.txt Node
Date: Thu May 02 15:15:17 EDT 2019
User: dh1006
Spectrometer: USB4E01358
Autoset integration time: false
Trigger mode: 4
Integration Time (sec): 8.000000E-2
Scans to average: 1
Electric dark correction enabled: true
Nonlinearity correction enabled: false
Boxcar width: 0
Stray light correction enabled: false
XAxis mode: Wavelengths
Stop averaging: false
Number of Pixels in Spectrum: 3648
>>>>>Begin Spectral Data<<<<<
176.727	303.33
176.966	303.33
177.205	303.33
177.444	233.71
177.683	-45.09
177.922	47.76
178.161	337.04
178.4	-247
178.638	5525
178.877	263.77
179.116	273.68
179.355	3013.64
179.593	-62.15
179.832	-13.61
180.071	114.04
180.309	-288.89
180.548	89.26
180.786	56.7
181.025	-5200
181.263	-44.83
181.502	10.92
181.74	101.64
181.979	43.33
182.217	-548.55
182.456	12.72
182.694	28.8
182.932	21.67
183.17	4.73
183.409	-256.46
183.647	81.69
183.885	-410.53
184.123	270.63
184.361	467.63
184.6	-65.99
184.838	2455.56
185.076	-46.43
185.314	-67.97
185.552	45.35
185.79	-44.38
186.028	60.35
186.266	-49.46
186.503	-76.02
186.741	22.36
186.979	84.71
187.217	-17875
187.455	-109.24
187.693	-67.12
187.93	47.21
188.168	1191.67
188.406	-74.48
188.643	-4.62
188.881	-527.54
189.119	41.14
189.356	-421.3
189.594	28.36
189.831	96.69
190.069	-84.48
190.306	43.47
190.543	9.63
190.781	41.43
191.018	27.48
191.256	532.79
191.493	-152.41
191.73	-59.39
191.967	-417.86
192.205	-120.11
192.442	-67.08
192.679	-9425
192.916	-284.38
193.153	87.97
193.39	-835.71
193.628	362.42
193.865	-92.63
194.102	103.17
194.339	3.75
194.576	75.09
194.813	51.68
195.049	-48.75
195.286	-7.32
195.523	150.2
195.76	-7.6
195.997	-55.91
196.234	-70.65
196.47	-71.65
196.707	-184.33
196.944	-38.33
197.18	58.82
197.417	20.31
197.654	5.94
197.89	-15.29
198.127	-49.55
198.363	328.74
198.6	-10.47
198.836	-23.11
199.073	53.96
199.309	28.69
199.546	-65.88
199.782	-122.64
200.018	-1473.33
200.255	126.69
200.491	-1723.26
200.727	15.2
200.963	-18.76
201.199	-62.15
201.436	314.04
201.672	-77.96
201.908	154.61
202.144	66.18
202.38	-437.89
202.616	53.26
202.852	-42.9
203.088	13.46
203.324	-396.84
203.56	-539.02
203.796	-72.94
204.032	24.85
204.268	297.92
204.503	304.69
204.739	-37.57
204.975	-63.88
205.211	-28.89
205.446	2.68
205.682	-18.41
205.918	-1209.3
206.153	29.09
206.389	216.67
206.625	156.33
206.86	73.86
207.096	-48.75
207.331	-2.11
207.567	-216.67
207.802	44.22
208.037	-28.26
208.273	-13.77
208.508	0
208.744	-95.03
208.979	29.75
209.214	-12025
209.449	-126.71
209.685	-121.38
209.92	22.54
210.155	-49.16
210.39	87.89
210.625	-278.57
210.86	-243.43
211.095	344.12
211.33	19.9
211.565	-529.63
211.8	74.71
212.035	268.6
212.27	39.82
212.505	267.38
212.74	59.39
212.975	1654.55
213.21	-3
213.444	-23.71
213.679	93.27
213.914	-19.85
214.149	-43.87
214.383	20.58
214.618	27.08
214.853	-11.02
215.087	-370.43
215.322	-71.12
215.556	-280.9
215.791	-695.35
216.025	-225.62
216.26	-122.49
216.494	210.81
216.729	-132.41
216.963	14.65
217.197	0
217.432	-3.06
217.666	-348.78
217.9	0
218.135	99.41
218.369	4911.11
218.603	210.18
218.837	-38.98
219.071	126.95
219.306	43.87
219.54	45.14
219.774	110.29
220.008	241.32
220.242	-257.85
220.476	-2141.18
220.71	113.78
220.944	-6
221.178	-681.71
221.411	-215.17
221.645	88.71
221.879	97.01
222.113	-1950
222.347	-14.65
222.58	-61.9
222.814	9.33
223.048	-228.7
223.281	23.88
223.515	540.71
223.749	-186.88
223.982	-51.27
224.216	1222
224.449	213.82
224.683	-118.18
224.916	-457.41
225.15	14.89
225.383	299
225.617	-76.59
225.85	-31.41
226.083	226.09
226.317	80.36
226.55	-71.86
226.783	84.26
227.016	30.3
227.25	1857.14
227.483	533.93
227.716	2.54
227.949	-69.96
228.182	0
228.415	-37.03
228.648	-406.25
228.881	93.81
229.114	7.32
229.347	39.33
229.58	546
229.813	-0
230.046	-39.39
230.279	-6.6
230.512	4.06
230.745	-28.23
230.977	29.34
231.21	71.04
231.443	-75.06
231.675	147.48
231.908	-1605.88
232.141	16.56
232.373	-684.21
232.606	79.59
232.839	-49.6
233.071	40.44
233.304	-211.74
233.536	0
233.769	113.82
234.001	6.22
234.233	-325
234.466	-38.53
234.698	452.45
234.93	-80.69
235.163	15.26
235.395	-695.35
235.627	39.39
235.86	-376.81
236.092	92.39
236.324	19.88
236.556	41.43
236.788	20.88
237.02	21.97
237.252	51.83
237.484	88.14
237.716	-780
237.948	-17.16
238.18	-32.23
238.412	-65.33
238.644	213.28
238.876	-235.63
239.108	-102.85
239.34	-106.56
239.571	-106.43
239.803	-87.8
240.035	79.32
240.267	173.79
240.498	-722.22
240.73	1129.51
240.962	-71.86
241.193	37.55
241.425	44.62
241.656	346.04
241.888	-49.46
242.119	21.77
242.351	-906.98
242.582	98.11
242.814	75.21
243.045	99.31
243.277	-77.61
243.508	245.95
243.739	195.38
243.971	-117.99
244.202	66.29
244.433	-157.8
244.664	38.67
244.896	-69.94
245.127	-1.6
245.358	-1276.79
245.589	-202.89
245.82	299.71
246.051	-78.7
246.282	-12.21
246.513	58.43
246.744	41.71
246.975	-507.32
247.206	-111.55
247.437	-84.23
247.668	-517.59
247.899	-32.16
248.129	16.25
248.36	-36.03
248.591	-64.13
248.822	11.06
249.052	58.21
249.283	-71.54
249.514	34.36
249.744	-24.12
249.975	-69.94
250.206	-64.83
250.436	-31.61
250.667	205.76
250.897	-56.29
251.128	22.13
251.358	702.7
251.589	260
251.819	-21.67
252.049	-93.86
252.28	18.91
252.51	-31.71
252.74	-12.87
252.971	-3250
253.201	-53.22
253.431	-79.55
253.661	67.45
253.891	-195
254.121	1.46
254.352	34.67
254.582	2005.71
254.812	-51.79
255.042	-97.99
255.272	-235.43
255.502	-45.92
255.732	1588.89
255.962	596.72
256.192	-7.21
256.421	-111.55
256.651	-110.76
256.881	-236.89
257.111	48.9
257.341	-51.04
257.57	148.03
257.8	-21.87
258.03	-13.91
258.259	18.08
258.489	38.76
258.719	20.35
258.948	-13.96
259.178	-39.03
259.407	851.33
259.637	27.86
259.866	40.63
260.096	-235.18
260.325	-45.09
260.555	202.1
260.784	2.48
261.013	-1508.93
261.243	4.84
261.472	755.41
261.701	46.22
261.931	-83.71
262.16	173.84
262.389	26.4
262.618	-226.52
262.847	-15.66
263.076	30.3
263.305	-13.65
263.535	-318.87
263.764	10.72
263.993	1.42
264.222	69.37
264.451	128.03
264.679	-8.07
264.908	4.39
265.137	53.83
265.366	86.94
265.595	-87.43
265.824	-3.98
266.053	-7.37
266.281	-300.58
266.51	32.99
266.739	-1.72
266.967	16.58
267.196	14300
267.425	-118.78
267.653	-106.68
267.882	-61.18
268.11	185.71
268.339	-18.31
268.567	-134.91
268.796	-202.1
269.024	-46.43
269.253	-204.72
269.481	12.42
269.709	-33.09
269.938	60.82
270.166	-6.34
270.394	-126.44
270.623	-11.06
270.851	15.2
271.079	-49.55
271.307	69.25
271.535	248.7
271.764	-36.11
271.992	202.84
272.22	-63.76
272.448	-68.42
272.676	133.04
272.904	8.97
273.132	52.85
273.36	12.42
273.588	257.6
273.816	-68.55
274.043	-96.07
274.271	73.16
274.499	-52
274.727	-505.56
274.955	-51.27
275.182	-13.85
275.41	-391.4
275.638	178.34
275.866	1164.58
276.093	125.44
276.321	-306.6
276.548	14.46
276.776	-144.44
277.003	71.54
277.231	1745.71
277.458	-99.13
277.686	-81.25
277.913	-73.12
278.141	22.1
278.368	61.45
278.595	26.1
278.823	-412.2
279.05	-234.66
279.277	-18.41
279.505	-116.55
279.732	-134.66
279.959	1968.57
280.186	12.78
280.413	-14.92
280.641	-37.57
280.868	-73.09
281.095	-196.64
281.322	-1646.67
281.549	-65.26
281.776	-9.45
282.003	1.86
282.23	-112.07
282.457	-34.12
282.683	53.49
282.91	-97.5
283.137	25.78
283.364	2422.73
283.591	-169.33
283.818	-1950
284.044	-1118.6
284.271	63.99
284.498	-81.52
284.724	9.38
284.951	11.8
285.178	4.52
285.404	20.25
285.631	82.49
285.857	-13.54
286.084	-73.58
286.31	-125.27
286.537	-90.07
286.763	39.21
286.99	-45.54
287.216	5633.33
287.442	-336.05
287.669	35.78
287.895	56.52
288.121	299.28
288.347	-49.16
288.574	3.55
288.8	-5.51
289.026	-88.64
289.252	-42.9
289.478	-232.84
289.704	-12.06
289.931	45.1
290.157	7.26
290.383	-2.77
290.609	-4.84
290.835	29.59
291.06	-13.2
291.286	-13.65
291.512	-225.43
291.738	173.73
291.964	9.48
292.19	-185.71
292.416	-167.74
292.641	-111.79
292.867	-12.78
293.093	1411.43
293.319	28.42
293.544	-187.12
293.77	-244.62
293.995	113.82
294.221	15.48
294.447	-12.1
294.672	-98.32
294.898	21.83
295.123	-36.29
295.349	-205.7
295.574	190.24
295.799	-21.02
296.025	23.09
296.25	-60.59
296.476	78
296.701	13.78
296.926	-2.36
297.151	-206.82
297.377	297.14
297.602	-135.76
297.827	18.47
298.052	-219.38
298.277	7.23
298.502	-12.61
298.727	13.65
298.953	-30.19
299.178	31.71
299.403	-39.2
299.628	25.37
299.852	16.39
300.077	-6347.06
300.302	14.89
300.527	-158.38
300.752	-39.66
300.977	247
301.202	618.03
301.426	-136.48
301.651	-95.95
301.876	-433.33
302.101	-196.81
302.325	18.66
302.55	-215.88
302.775	-120.11
302.999	48.77
303.224	-40.62
303.448	14.86
303.673	-264.81
303.897	83.87
304.122	-101.86
304.346	17.54
304.571	71.26
304.795	-53.06
305.019	-8.64
305.244	10.35
305.468	439.19
305.692	181.21
305.917	-343.8
306.141	-66.96
306.365	404.92
306.589	-12.38
306.813	-40.51
307.038	-21.67
307.262	-17.16
307.486	-6.19
307.71	1950
307.934	83.72
308.158	-90.17
308.382	-29.15
308.606	-112.58
308.83	-4.62
309.054	-306.22
309.278	4.14
309.502	41.45
309.725	-15.03
309.949	-39.16
310.173	18.68
310.397	28.65
310.62	-232.84
310.844	-46.93
311.068	-276.25
311.292	37.09
311.515	-10.1
311.739	812.5
311.962	-54.93
312.186	6.12
312.41	22.9
312.633	-71.61
312.857	15.31
313.08	-445.37
313.303	-38.56
313.527	-33.07
313.75	8.58
313.974	-33.89
314.197	-136.1
314.42	42.03
314.644	46.99
314.867	-7.32
315.09	-37.52
315.313	35.22
315.536	-7.78
315.76	-188.28
315.983	-143.73
316.206	-61.45
316.429	-357.5
316.652	-260
316.875	20.15
317.098	-12.84
317.321	42.06
317.544	-186.87
317.767	26.03
317.99	99.08
318.213	-33.72
318.436	-32.91
318.658	-14.49
318.881	-68.86
319.104	-18.57
319.327	7.95
319.55	-170.92
319.772	18.73
319.995	-390
320.218	14.22
320.44	433.33
320.663	39.59
320.885	-102.28
321.108	3.11
321.331	-45.79
321.553	-139.87
321.776	-4550
321.998	29.2
322.22	-96.3
322.443	-14.77
322.665	104
322.888	-5.86
323.11	36.94
323.332	-6.63
323.555	38.24
323.777	-193.86
323.999	-81.36
324.221	8.04
324.443	4.48
324.666	-39.78
324.888	-14.44
325.11	-204.13
325.332	6.53
325.554	-73.58
325.776	-60.42
325.998	-544.19
326.22	-357.97
326.442	8.26
326.664	-7.83
326.886	-257.55
327.108	-22.41
327.33	98.22
327.551	-27.39
327.773	16.34
327.995	46.64
328.217	-24.86
328.439	-53.28
328.66	8.88
328.882	-257.85
329.104	-812.5
329.325	-11.69
329.547	68.56
329.769	34.32
329.99	12.01
330.212	639.34
330.433	-16.95
330.655	-2.03
330.876	95.82
331.098	596.72
331.319	-35.96
331.54	-16.27
331.762	-111.43
331.983	-41.77
332.204	-29.15
332.426	-21.03
332.647	335.96
332.868	12.17
333.089	-197.24
333.311	-15.55
333.532	-75.58
333.753	-2643.33
333.974	15.29
334.195	-42.39
334.416	37.52
334.637	-111.83
334.858	19.37
335.079	34.21
335.3	-78.51
335.521	-241.71
335.742	-414.49
335.963	-47.14
336.184	42.03
336.405	29.37
336.626	4.15
336.846	0
337.067	21.67
337.288	45.24
337.509	-2383.33
337.729	46.43
337.95	-483.72
338.171	-91.46
338.391	-8.5
338.612	83.2
338.833	920.83
339.053	-154.1
339.274	57.39
339.494	-37.32
339.715	288.89
339.935	41.14
340.156	-79.87
340.376	36.71
340.596	-6
340.817	817.14
341.037	111.08
341.257	27.54
341.478	-46.17
341.698	-24.73
341.918	-138.12
342.138	-71.95
342.359	-363.44
342.579	3.9
342.799	-93.56
343.019	48.62
343.239	26.41
343.459	46.82
343.679	11.47
343.899	28.89
344.119	60.03
344.339	4.11
344.559	-59.38
344.779	118.18
344.999	-26.03
345.219	53.54
345.439	71.65
345.658	8233.33
345.878	1787.5
346.098	-19.83
346.318	-13.72
346.537	1536.36
346.757	89.86
346.977	46.5
347.196	15.18
347.416	40.15
347.636	-20.78
347.855	21.85
348.075	-88.64
348.294	56.88
348.514	-48.15
348.733	63.82
348.953	-355.79
349.172	-98.22
349.392	-54.59
349.611	40.51
349.83	49.46
350.05	-172.48
350.269	-40.51
350.488	-23.9
350.707	149.43
350.927	8.39
351.146	79.9
351.365	-48.73
351.584	-206.82
351.803	0
352.023	-44.83
352.242	13.64
352.461	46.22
352.68	-62.15
352.899	-26.76
353.118	35.56
353.337	-54.17
353.556	-11.4
353.775	11.28
353.993	-72.59
354.212	19.94
354.431	-18.68
354.65	33.59
354.869	-33.66
355.088	6.42
355.306	104.66
355.525	-4.89
355.744	3.37
355.962	-160.75
356.181	1229.73
356.4	-15.2
356.618	-23.25
356.837	-89.09
357.055	-71.04
357.274	43.54
357.492	-228.7
357.711	35.56
357.929	-4.32
358.148	-531.56
358.366	106.43
358.585	160.67
358.803	-167.33
359.021	678.76
359.24	1.6
359.458	-136.1
359.676	-5.04
359.894	-32.66
360.113	27.83
360.331	-32.69
360.549	445.71
360.767	57.39
360.985	135.82
361.203	-66.98
361.421	-44.79
361.639	0
361.857	39.84
362.075	-33.07
362.293	-5.74
362.511	-148.1
362.729	-155.43
362.947	-160.65
363.165	-130
363.383	-6.47
363.601	29.25
363.819	-3.3
364.036	-30.9
364.254	184.77
364.472	-49.69
364.689	-120.85
364.907	-63.78
365.125	-32.5
365.342	-285.55
365.56	87.47
365.778	-39.07
365.995	-398.13
366.213	-55.91
366.43	27.29
366.648	-18.06
366.865	38.24
367.083	-27.71
367.3	64.02
367.517	0
367.735	-13.2
367.952	-47.61
368.17	-17.59
368.387	-46.31
368.604	-15.99
368.821	-179.31
369.039	-12.11
369.256	8.66
369.473	47.68
369.69	-201.46
369.907	-2275
370.124	2718.18
370.341	184.8
370.558	-40.21
370.776	19.44
370.993	-20.78
371.21	-80.56
371.426	-72.87
371.643	-6.03
371.86	49.8
372.077	-35.86
372.294	3.32
372.511	-47.51
372.728	-77.96
372.945	63.09
373.161	-25.79
373.378	-79.82
373.595	-107.22
373.811	17.79
374.028	-43.58
374.245	-18.87
374.461	-61.71
374.678	53.24
374.895	-47.79
375.111	-38.56
375.328	22.15
375.544	685.14
375.761	14.22
375.977	-19.21
376.194	4.97
376.41	-125.44
376.626	1.74
376.843	-15.21
377.059	19.95
377.275	-31.3
377.492	53.12
377.708	-26.85
377.924	1.99
378.14	-59.26
378.357	43.19
378.573	-156.33
378.789	7.03
379.005	25.87
379.221	-99.27
379.437	-12.4
379.653	18.11
379.869	-7.03
380.085	-78.51
380.301	-4.48
380.517	6.42
380.733	-2.03
380.949	-54.88
381.165	-14.05
381.381	1.63
381.597	19.59
381.813	24.92
382.028	-64.32
382.244	-30.62
382.46	-14.8
382.676	-13.29
382.891	-109.44
383.107	-25.64
383.323	-29.28
383.538	-84.98
383.754	-33.63
383.969	33.16
384.185	1.38
384.4	-10.38
384.616	-61.74
384.831	15.99
385.047	-63.93
385.262	-9.32
385.478	11.92
385.693	11.06
385.909	28.91
386.124	8.63
386.339	11.83
386.554	0
386.77	17.07
386.985	-31.64
387.2	45.35
387.415	66.24
387.631	9.54
387.846	29.12
388.061	-19.21
388.276	-5.74
388.491	-26.45
388.706	-13.64
388.921	24.94
389.136	-6.12
389.351	-8.9
389.566	-77.13
389.781	24.89
389.996	39.3
390.211	0
390.426	38
390.641	-4.15
390.855	-10.75
391.07	10.98
391.285	-6.42
391.5	-35.92
391.714	22.81
391.929	35.6
392.144	18.51
392.358	-46.61
392.573	-4.23
392.788	-18.71
393.002	-16.03
393.217	4.57
393.431	-21.67
393.646	10.87
393.86	16.53
394.075	-2.56
394.289	13.42
394.504	-29.74
394.718	23.98
394.933	12.34
395.147	4.89
395.361	6
395.576	11.96
395.79	-18.15
396.004	2.97
396.218	16.82
396.432	-6.07
396.647	-0.83
396.861	25.29
397.075	12.66
397.289	8.19
397.503	9.42
397.717	5.06
397.931	14.94
398.145	8.72
398.359	9.36
398.573	4.78
398.787	8.39
399.001	17.88
399.215	21.53
399.429	3.5
399.643	11.39
399.857	1.5
400.07	5.53
400.284	11.33
400.498	12.22
400.712	10.64
400.925	20.98
401.139	11.81
401.353	16.7
401.566	12.14
401.78	15.2
401.994	8.82
402.207	13.34
402.421	9.08
402.634	3.23
402.848	12.16
403.061	4.33
403.275	18.94
403.488	14.07
403.702	19.29
403.915	8.71
404.128	6.22
404.342	7.07
404.555	7.17
404.768	18.13
404.982	20.63
405.195	3.96
405.408	9.61
405.621	10.03
405.835	10.91
406.048	13.57
406.261	10.07
406.474	23.6
406.687	11.74
406.9	12.21
407.113	12.95
407.326	17.29
407.539	13.76
407.752	10.13
407.965	12.93
408.178	10
408.391	11.73
408.604	13.04
408.817	8.53
409.029	9.57
409.242	14.44
409.455	12.01
409.668	14.26
409.881	17.96
410.093	10.28
410.306	15.51
410.519	13.32
410.731	10.29
410.944	13.76
411.157	14.22
411.369	14.12
411.582	11.98
411.794	13.84
412.007	14.17
412.219	16.99
412.432	16.46
412.644	15.41
412.857	13.86
413.069	12.75
413.281	13.48
413.494	12.16
413.706	14.01
413.918	14.95
414.131	12.35
414.343	8.14
414.555	12.44
414.767	11.75
414.979	11.93
415.192	10.69
415.404	11.04
415.616	13.1
415.828	13.98
416.04	10.98
416.252	15.3
416.464	12.3
416.676	10.69
416.888	11.29
417.1	10.27
417.312	10.66
417.524	13.58
417.736	11.26
417.948	10.51
418.159	10.35
418.371	10.41
418.583	9.21
418.795	9.74
419.007	14.87
419.218	9.15
419.43	9.41
419.642	9.89
419.853	9.41
420.065	11.84
420.276	12.56
420.488	10.86
420.7	7.68
420.911	11.14
421.123	9.52
421.334	9.94
421.546	9.71
421.757	9.79
421.969	8.38
422.18	7.46
422.391	9.45
422.603	8.3
422.814	10.12
423.025	7.99
423.237	10.1
423.448	8.11
423.659	12.22
423.87	6.79
424.082	8.29
424.293	8.08
424.504	9.52
424.715	8.36
424.926	5.36
425.137	6.28
425.348	6.13
425.559	8.68
425.77	8.36
425.981	6.77
426.192	9.34
426.403	6.17
426.614	6.22
426.825	6.89
427.036	8.56
427.247	3.78
427.458	8.57
427.668	5.32
427.879	5.72
428.09	8.09
428.301	4.6
428.511	5.03
428.722	3.75
428.933	4.18
429.143	5.23
429.354	6.54
429.565	5.68
429.775	2.71
429.986	5.87
430.196	5.67
430.407	3.82
430.617	1.4
430.828	1.96
431.038	5.98
431.249	4.44
431.459	4.56
431.669	5.9
431.88	7.26
432.09	5.32
432.3	4.67
432.511	4.19
432.721	5.06
432.931	5.67
433.141	3.38
433.351	2.07
433.562	4.51
433.772	5.71
433.982	3.15
434.192	4.27
434.402	3.93
434.612	0.97
434.822	3.02
435.032	3.95
435.242	2.88
435.452	2.05
435.662	1.94
435.872	3.22
436.082	3.05
436.292	2.68
436.502	3.63
436.711	0.69
436.921	2.42
437.131	2.08
437.341	0.26
437.551	4.56
437.76	5.13
437.97	2.46
438.18	3.04
438.389	1.12
438.599	1.56
438.808	1.26
439.018	-0.83
439.228	4.22
439.437	3.78
439.647	1.31
439.856	3.59
440.066	2.39
440.275	1.62
440.484	6.4
440.694	3.97
440.903	2.45
441.113	2.11
441.322	2.96
441.531	3.06
441.741	3.39
441.95	3.62
442.159	2.49
442.368	3.76
442.577	1.8
442.787	2.92
442.996	2.55
443.205	1.02
443.414	1.13
443.623	3.19
443.832	2.82
444.041	2.93
444.25	4.62
444.459	1.48
444.668	0.85
444.877	4.68
445.086	1.34
445.295	1.38
445.504	4.07
445.713	1.19
445.922	-0.51
446.13	3.97
446.339	-1.07
446.548	0.92
446.757	2.01
446.965	-2.21
447.174	-0.06
447.383	2.19
447.591	-0.07
447.8	1.07
448.009	2.7
448.217	1.91
448.426	0.13
448.634	3.69
448.843	1.74
449.051	2.99
449.26	0.92
449.468	2.76
449.677	1.93
449.885	0.21
450.093	1.6
450.302	0.97
450.51	1.6
450.719	-0.55
450.927	1.99
451.135	1.59
451.343	1.42
451.552	2.49
451.76	1.05
451.968	0.13
452.176	0.07
452.384	0.54
452.592	3.37
452.8	-0.34
453.009	1.25
453.217	1.37
453.425	0.87
453.633	-1.13
453.841	1.58
454.049	0.67
454.257	3
454.464	2.32
454.672	3.19
454.88	0.98
455.088	-0.79
455.296	1.35
455.504	3.61
455.711	1.07
455.919	1.93
456.127	1.03
456.335	3.07
456.542	4.09
456.75	1.11
456.958	1.64
457.165	0.7
457.373	-1.32
457.581	0.13
457.788	-1.26
457.996	0.4
458.203	1.81
458.411	3.41
458.618	0.43
458.826	3.67
459.033	4.5
459.24	2.86
459.448	-0.59
459.655	2.31
459.863	2.04
460.07	0.06
460.277	-0.54
460.484	0.61
460.692	-0.78
460.899	-1.41
461.106	0.13
461.313	1.63
461.52	0.97
461.728	1.89
461.935	4.36
462.142	1.29
462.349	2.24
462.556	2.29
462.763	0.46
462.97	0.12
463.177	1.48
463.384	0.78
463.591	1.16
463.798	2.21
464.005	0.95
464.212	3.93
464.418	3.49
464.625	2.07
464.832	2.55
465.039	-2.69
465.246	1.44
465.452	1.31
465.659	1.83
465.866	-0.76
466.072	0.29
466.279	1.01
466.486	1.31
466.692	1.97
466.899	3.49
467.105	-0.23
467.312	0.18
467.519	4.51
467.725	0.74
467.931	0.35
468.138	0
468.344	-0.85
468.551	-0.59
468.757	2.25
468.964	4.05
469.17	2.19
469.376	2.22
469.583	2.17
469.789	0.63
469.995	-0.1
470.201	5.35
470.408	3.09
470.614	2.11
470.82	-0.66
471.026	-0.36
471.232	-0.1
471.438	1.77
471.644	0.89
471.85	2.75
472.056	1.14
472.262	1.81
472.468	0.67
472.674	3.72
472.88	1.9
473.086	0.46
473.292	1.21
473.498	-0.05
473.704	0.09
473.91	0.78
474.116	2.33
474.321	1.69
474.527	0.74
474.733	1.9
474.939	1.49
475.144	4.76
475.35	0.87
475.556	0.38
475.761	1.16
475.967	1.74
476.173	2.51
476.378	2.49
476.584	1.14
476.789	1.72
476.995	3.07
477.2	1.63
477.406	1.98
477.611	1.57
477.817	1.14
478.022	1.29
478.227	2.2
478.433	1.7
478.638	2.69
478.843	1.75
479.049	1.77
479.254	1.78
479.459	-0.43
479.664	1.95
479.87	3.27
480.075	2.29
480.28	2.26
480.485	1.41
480.69	2.11
480.895	0.44
481.1	1.64
481.306	3.09
481.511	1.81
481.716	1.25
481.921	2.3
482.126	2.01
482.33	2.05
482.535	2.56
482.74	0.39
482.945	0.77
483.15	1.02
483.355	2.53
483.56	0.94
483.765	0.37
483.969	1.81
484.174	3.3
484.379	2.81
484.583	2.54
484.788	1.42
484.993	2.43
485.197	2.72
485.402	2.08
485.607	2.94
485.811	0.29
486.016	3.72
486.22	3.68
486.425	2.28
486.629	3.09
486.834	2.49
487.038	3.21
487.243	2.69
487.447	2.17
487.652	3.09
487.856	2.88
488.06	2.27
488.265	3.1
488.469	3.01
488.673	2.8
488.877	2.75
489.082	3
489.286	3.89
489.49	2.67
489.694	3.66
489.898	3.66
490.102	2.91
490.307	2.39
490.511	2.89
490.715	2.79
490.919	3.77
491.123	1.81
491.327	4.15
491.531	2.58
491.735	4.29
491.939	3.48
492.143	3.29
492.346	3.89
492.55	2.82
492.754	2.81
492.958	3.59
493.162	2.48
493.366	3.4
493.569	4.19
493.773	3.26
493.977	3.73
494.18	3.56
494.384	3.52
494.588	4.82
494.791	3.65
494.995	4.01
495.199	3.79
495.402	5.45
495.606	3.37
495.809	4.89
496.013	3.98
496.216	4.59
496.42	4.17
496.623	3.85
496.827	4.37
497.03	4.79
497.233	4.57
497.437	4.36
497.64	5.11
497.843	4.53
498.047	4.69
498.25	6.01
498.453	5.96
498.656	5.08
498.86	4.69
499.063	6
499.266	5.02
499.469	4.98
499.672	6.41
499.875	6.51
500.078	5.5
500.281	5.7
500.484	5.58
500.687	5.19
500.89	6.71
501.093	6.93
501.296	7.06
501.499	5.93
501.702	7.57
501.905	7.49
502.108	7.73
502.311	6.91
502.514	6.91
502.716	7.41
502.919	7.13
503.122	7.26
503.325	8.59
503.527	7.87
503.73	8.64
503.933	7.52
504.135	8.38
504.338	8.39
504.541	8.4
504.743	10.01
504.946	8.85
505.148	8.92
505.351	8.74
505.553	8.76
505.756	10.32
505.958	9.76
506.161	10.8
506.363	10.09
506.565	9.9
506.768	10.01
506.97	9.06
507.172	9.56
507.375	9.92
507.577	10.27
507.779	11.36
507.982	11.28
508.184	11.53
508.386	12.05
508.588	11.73
508.79	12.29
508.993	12.03
509.195	12.67
509.397	12.98
509.599	12.94
509.801	11.47
510.003	13.37
510.205	13.59
510.407	13
510.609	13.78
510.811	13.43
511.013	13.3
511.215	13.25
511.417	13.97
511.618	13.83
511.82	14.4
512.022	14.4
512.224	13.97
512.426	14.07
512.627	14.32
512.829	14.63
513.031	14.92
513.233	15.55
513.434	14.09
513.636	13.87
513.838	15.14
514.039	15.32
514.241	14.91
514.442	15.61
514.644	15.34
514.845	15.98
515.047	14.98
515.248	15.65
515.45	14.48
515.651	14.89
515.853	15.13
516.054	14.92
516.256	14.73
516.457	15.87
516.658	14.6
516.86	15.06
517.061	14.86
517.262	14.98
517.463	14.7
517.665	14.79
517.866	14.49
518.067	14.77
518.268	14.52
518.469	14.36
518.67	14.38
518.872	14.16
519.073	13.7
519.274	14
519.475	13.02
519.676	12.89
519.877	13.42
520.078	12.99
520.279	12.86
520.48	12.56
520.681	11.7
520.881	13.15
521.082	13.12
521.283	12.32
521.484	11.45
521.685	11.7
521.886	12.16
522.086	12.02
522.287	12.39
522.488	11.93
522.689	11.57
522.889	11.73
523.09	10.52
523.291	11.27
523.491	11.23
523.692	11.03
523.892	11.23
524.093	9.94
524.294	10.36
524.494	10.05
524.695	9.88
524.895	10.11
525.096	9.41
525.296	9.16
525.496	9.23
525.697	9.32
525.897	8.66
526.098	8.84
526.298	8.6
526.498	8.27
526.699	8.57
526.899	8.67
527.099	8.22
527.299	7.85
527.499	7.66
527.7	8.29
527.9	7.69
528.1	7.26
528.3	7.63
528.5	7.61
528.7	7.41
528.9	6.94
529.1	6.95
529.3	6.69
529.5	7.13
529.7	6.47
529.9	6.51
530.1	6.55
530.3	6.06
530.5	6.51
530.7	6.76
530.9	6.58
531.1	6.48
531.3	5.88
531.499	6
531.699	5.93
531.899	5.88
532.099	5.99
532.298	5.42
532.498	5.93
532.698	5.86
532.897	5.48
533.097	5.08
533.297	5.29
533.496	5.26
533.696	5.28
533.895	4.79
534.095	5.26
534.294	5.2
534.494	4.45
534.693	4.58
534.893	5.06
535.092	4.47
535.292	4.49
535.491	4.55
535.69	4.39
535.89	4.31
536.089	4.18
536.288	4.03
536.488	3.97
536.687	4.47
536.886	3.78
537.085	4.5
537.285	4.13
537.484	4.04
537.683	3.98
537.882	3.78
538.081	4.1
538.28	3.84
538.479	3.56
538.678	3.74
538.877	3.4
539.076	3.35
539.275	3.32
539.474	3.79
539.673	3.72
539.872	3.06
540.071	3.73
540.27	3.79
540.469	3.27
540.668	3.55
540.867	3.78
541.065	3.72
541.264	3
541.463	3.01
541.662	2.87
541.861	2.92
542.059	3.16
542.258	2.98
542.457	2.9
542.655	2.61
542.854	3.48
543.052	2.8
543.251	2.97
543.45	3.19
543.648	2.89
543.847	3.17
544.045	2.77
544.244	2.8
544.442	2.91
544.641	2.78
544.839	2.69
545.037	2.92
545.236	2.57
545.434	2.57
545.632	2.74
545.831	2.68
546.029	2.09
546.227	2.3
546.426	2.74
546.624	2.53
546.822	2.49
547.02	2.48
547.218	2.3
547.417	2.13
547.615	2.25
547.813	2.29
548.011	2.56
548.209	2.68
548.407	2.55
548.605	2.38
548.803	2.05
549.001	2.16
549.199	2.33
549.397	2.41
549.595	2.15
549.793	2.37
549.991	2.35
550.189	2.21
550.387	2.12
550.584	2.5
550.782	1.93
550.98	2.1
551.178	2.58
551.376	2.22
551.573	1.72
551.771	2.26
551.969	2.53
552.166	1.93
552.364	1.84
552.562	1.77
552.759	2.11
552.957	1.92
553.154	1.94
553.352	1.94
553.55	1.83
553.747	1.7
553.945	1.94
554.142	1.8
554.339	1.9
554.537	2.02
554.734	1.68
554.932	2.11
555.129	1.77
555.326	1.98
555.524	1.75
555.721	1.95
555.918	1.86
556.116	1.62
556.313	2.06
556.51	1.73
556.707	1.76
556.904	1.73
557.102	1.54
557.299	1.8
557.496	1.82
557.693	1.89
557.89	2.1
558.087	2.04
558.284	1.7
558.481	2.02
558.678	1.61
558.875	1.79
559.072	1.94
559.269	1.78
559.466	1.41
559.663	1.67
559.86	1.77
560.057	1.67
560.254	1.41
560.45	1.63
560.647	1.49
560.844	1.55
561.041	1.94
561.237	1.3
561.434	1.57
561.631	1.87
561.828	1.62
562.024	1.29
562.221	1.29
562.418	1.63
562.614	1.38
562.811	1.46
563.007	1.38
563.204	1.81
563.4	1.69
563.597	1.96
563.793	1.56
563.99	1.65
564.186	1.54
564.383	1.83
564.579	1.64
564.775	1.48
564.972	1.8
565.168	1.4
565.365	1.47
565.561	1.54
565.757	1.48
565.953	1.57
566.15	1.5
566.346	1.64
566.542	1.51
566.738	1.57
566.934	1.5
567.131	1.34
567.327	1.87
567.523	1.42
567.719	1.16
567.915	1.56
568.111	1.77
568.307	1.79
568.503	1.63
568.699	1.33
568.895	1.49
569.091	1.7
569.287	1.71
569.483	1.45
569.679	1.65
569.875	1.37
570.07	1.35
570.266	1.68
570.462	1.48
570.658	1.45
570.854	1.53
571.049	1.44
571.245	1.49
571.441	1.65
571.636	1.37
571.832	1.44
572.028	1.28
572.223	1.38
572.419	1.22
572.615	1.33
572.81	1.43
573.006	1.39
573.201	1.33
573.397	1.53
573.592	1.57
573.788	1.12
573.983	1.42
574.179	1.44
574.374	1.51
574.569	1.75
574.765	1.5
574.96	1.14
575.156	1.51
575.351	1.49
575.546	1.55
575.741	1.54
575.937	1.35
576.132	1.61
576.327	1.51
576.522	1.25
576.718	1.36
576.913	1.34
577.108	1.33
577.303	1.48
577.498	1.19
577.693	1.6
577.888	1.36
578.083	1.4
578.278	1.45
578.473	1.43
578.668	1.46
578.863	1.37
579.058	1.46
579.253	1.51
579.448	1.33
579.643	1.55
579.838	1.37
580.033	1.09
580.227	1.36
580.422	1.33
580.617	1.53
580.812	1.56
581.006	1.47
581.201	1.67
581.396	1.16
581.591	1.41
581.785	1.53
581.98	1.57
582.175	1.44
582.369	1.53
582.564	1.47
582.758	1.52
582.953	1.32
583.147	1.36
583.342	1.33
583.536	1.45
583.731	1.71
583.925	1.63
584.12	1.53
584.314	1.5
584.509	1.29
584.703	1.45
584.897	1.39
585.092	1.54
585.286	1.69
585.48	1.29
585.674	1.48
585.869	1.53
586.063	1.5
586.257	1.47
586.451	1.4
586.646	1.72
586.84	1.3
587.034	1.39
587.228	1.09
587.422	1.15
587.616	1.36
587.81	1.45
588.004	1.4
588.198	1.59
588.392	1.31
588.586	1.64
588.78	1.75
588.974	1.34
589.168	1.58
589.362	1.57
589.556	1.7
589.75	1.34
589.944	1.63
590.137	1.61
590.331	1.71
590.525	1.78
590.719	1.45
590.913	1.6
591.106	1.69
591.3	1.69
591.494	1.8
591.687	1.45
591.881	1.65
592.075	1.54
592.268	1.21
592.462	1.69
592.655	1.51
592.849	1.69
593.043	1.5
593.236	1.65
593.43	1.34
593.623	1.28
593.817	1.28
594.01	1.43
594.203	1.77
594.397	1.48
594.59	1.7
594.784	1.41
594.977	1.59
595.17	1.36
595.364	1.25
595.557	1.66
595.75	1.4
595.943	1.6
596.137	1.39
596.33	1.49
596.523	1.83
596.716	1.68
596.909	1.69
597.102	1.64
597.296	1.65
597.489	1.54
597.682	1.48
597.875	1.51
598.068	1.58
598.261	1.67
598.454	1.75
598.647	1.62
598.84	1.43
599.033	1.45
599.226	1.76
599.419	1.52
599.611	1.58
599.804	1.51
599.997	1.58
600.19	1.67
600.383	1.52
600.576	1.61
600.768	1.65
600.961	1.72
601.154	1.52
601.347	1.81
601.539	1.64
601.732	1.69
601.925	1.72
602.117	1.75
602.31	1.72
602.502	1.59
602.695	1.84
602.888	1.59
603.08	1.37
603.273	1.45
603.465	1.76
603.658	1.65
603.85	1.63
604.043	1.75
604.235	1.83
604.427	1.54
604.62	1.62
604.812	1.57
605.004	1.82
605.197	1.71
605.389	1.68
605.581	1.55
605.774	1.72
605.966	1.62
606.158	1.77
606.35	1.65
606.543	1.86
606.735	1.86
606.927	1.55
607.119	1.74
607.311	1.88
607.503	1.81
607.695	1.7
607.887	1.9
608.079	2.02
608.271	1.76
608.463	1.62
608.655	1.78
608.847	1.83
609.039	1.97
609.231	1.86
609.423	1.93
609.615	1.83
609.807	1.69
609.999	2.01
610.191	1.88
610.382	1.99
610.574	1.91
610.766	1.93
610.958	1.87
611.15	2.04
611.341	2.21
611.533	2.17
611.725	1.85
611.916	1.99
612.108	2.22
612.3	2.02
612.491	2.04
612.683	1.73
612.874	2
613.066	2.04
613.257	1.87
613.449	1.8
613.64	1.93
613.832	1.87
614.023	1.88
614.215	2
614.406	2.11
614.598	1.88
614.789	2.05
614.98	2.26
615.172	2.01
615.363	2.16
615.554	2.05
615.746	2.02
615.937	2.11
616.128	2.01
616.319	2.16
616.511	1.92
616.702	2.17
616.893	2.2
617.084	2.01
617.275	2.24
617.466	2
617.658	2.26
617.849	2.14
618.04	1.91
618.231	2.01
618.422	2.03
618.613	2.28
618.804	2.27
618.995	2.42
619.186	2.28
619.377	1.95
619.568	2.14
619.758	2.19
619.949	2.48
620.14	2.24
620.331	2.09
620.522	2.26
620.713	2.3
620.903	2.46
621.094	2.38
621.285	2.44
621.476	2.28
621.666	2.35
621.857	2.17
622.048	2.49
622.238	2.54
622.429	2.64
622.62	2.46
622.81	2.65
623.001	2.7
623.191	2.74
623.382	2.58
623.572	2.65
623.763	2.51
623.953	2.69
624.144	2.3
624.334	2.54
624.525	2.57
624.715	2.68
624.905	2.87
625.096	2.8
625.286	2.71
625.477	2.63
625.667	2.79
625.857	2.42
626.047	2.61
626.238	2.79
626.428	2.99
626.618	2.9
626.808	2.77
626.999	2.89
627.189	2.91
627.379	2.79
627.569	2.92
627.759	2.86
627.949	2.92
628.139	2.66
628.329	2.99
628.519	3.12
628.709	2.9
628.899	2.93
629.089	3.05
629.279	3.05
629.469	2.83
629.659	2.67
629.849	3.1
630.039	3.11
630.229	2.93
630.419	2.94
630.609	2.93
630.798	3.14
630.988	3.06
631.178	2.99
631.368	3.08
631.557	3.33
631.747	3.23
631.937	3.05
632.127	3.15
632.316	3.44
632.506	3.21
632.696	3.31
632.885	3.39
633.075	3.21
633.264	3.42
633.454	3.3
633.643	3.23
633.833	3.41
634.022	3.41
634.212	3.71
634.401	3.68
634.591	3.19
634.78	3.24
634.97	3.58
635.159	3.46
635.348	3.56
635.538	3.42
635.727	3.52
635.916	3.5
636.106	3.55
636.295	3.63
636.484	3.29
636.674	3.54
636.863	3.55
637.052	3.44
637.241	3.73
637.43	3.77
637.619	3.5
637.809	3.83
637.998	3.8
638.187	3.71
638.376	3.85
638.565	3.86
638.754	3.74
638.943	3.77
639.132	3.98
639.321	3.93
639.51	4.08
639.699	3.65
639.888	3.58
640.077	3.79
640.266	3.86
640.455	4.1
640.643	3.92
640.832	4
641.021	3.98
641.21	4.06
641.399	4.01
641.587	3.91
641.776	4.31
641.965	4.13
642.154	4.39
642.342	4.15
642.531	4.28
642.72	4.01
642.908	4.28
643.097	4.51
643.286	4.35
643.474	4.42
643.663	4.63
643.851	4.64
644.04	4.32
644.228	4.38
644.417	4.24
644.605	4.73
644.794	4.34
644.982	4.7
645.171	4.34
645.359	4.74
645.547	4.71
645.736	4.59
645.924	4.26
646.112	4.58
646.301	4.74
646.489	4.49
646.677	4.64
646.866	4.7
647.054	4.66
647.242	4.7
647.43	4.79
647.618	4.92
647.807	5.26
647.995	5.07
648.183	5.02
648.371	4.68
648.559	4.94
648.747	4.94
648.935	5.1
649.123	5.25
649.311	5.16
649.499	5.26
649.687	5.26
649.875	5.06
650.063	5.29
650.251	5.07
650.439	5.45
650.627	5.46
650.815	5.32
651.003	5.31
651.191	5.41
651.378	5.33
651.566	5.57
651.754	5.18
651.942	5.53
652.13	5.69
652.317	5.64
652.505	5.9
652.693	5.47
652.88	5.99
653.068	5.79
653.256	6.09
653.443	5.84
653.631	6.06
653.819	5.99
654.006	5.95
654.194	5.98
654.381	5.85
654.569	6.08
654.756	5.89
654.944	6.07
655.131	6.06
655.319	6.42
655.506	6.3
655.693	6.07
655.881	6.41
656.068	6.59
656.256	6.58
656.443	6.29
656.63	6.38
656.818	6.52
657.005	6.43
657.192	6.43
657.379	6.89
657.567	6.64
657.754	6.6
657.941	6.81
658.128	6.89
658.315	6.7
658.502	6.77
658.69	6.91
658.877	6.78
659.064	6.73
659.251	6.98
659.438	6.82
659.625	6.92
659.812	7.06
659.999	7.14
660.186	7.03
660.373	7.36
660.56	7.35
660.747	7.36
660.934	7.54
661.121	7.51
661.308	7.53
661.494	7.54
661.681	7.42
661.868	7.68
662.055	7.34
662.242	7.9
662.428	8.17
662.615	8.01
662.802	8.25
662.989	8.2
663.175	8.27
663.362	8.93
663.549	8.58
663.735	8.72
663.922	8.24
664.109	8.46
664.295	8.32
664.482	8.45
664.668	8.5
664.855	8.49
665.041	8.42
665.228	8.51
665.414	9.1
665.601	8.83
665.787	8.7
665.974	9.02
666.16	8.93
666.347	8.47
666.533	8.83
666.719	9.01
666.906	9.02
667.092	8.58
667.278	9.01
667.465	8.99
667.651	9.29
667.837	9.23
668.023	9.49
668.21	9.1
668.396	8.91
668.582	9.23
668.768	9.13
668.954	9.15
669.14	8.91
669.327	9.52
669.513	9.85
669.699	9.91
669.885	9.92
670.071	10.05
670.257	10.13
670.443	10.21
670.629	10.03
670.815	10.1
671.001	10
671.187	10.36
671.373	10.04
671.559	10.25
671.744	10.39
671.93	10.52
672.116	10.69
672.302	10.79
672.488	10.59
672.674	11.29
672.859	10.92
673.045	10.92
673.231	10.52
673.417	10.81
673.602	11.09
673.788	10.94
673.974	10.98
674.159	11.1
674.345	10.93
674.531	11.39
674.716	10.94
674.902	11.31
675.087	11.61
675.273	11.28
675.459	11.83
675.644	11.92
675.83	11.6
676.015	11.47
676.2	11.47
676.386	11.39
676.571	11.72
676.757	11.5
676.942	11.59
677.128	11.71
677.313	11.53
677.498	11.55
677.684	11.91
677.869	11.81
678.054	12.33
678.24	12.45
678.425	12.65
678.61	12.13
678.795	12.49
678.98	12.55
679.166	12.89
679.351	12.67
679.536	12.23
679.721	12.44
679.906	12.83
680.091	12.28
680.276	12.71
680.461	13.31
680.647	13.04
680.832	13.44
681.017	13.06
681.202	13.27
681.387	13.32
681.572	12.95
681.756	13.17
681.941	13.52
682.126	13.44
682.311	13.45
682.496	13.43
682.681	13.33
682.866	13.79
683.051	13.08
683.235	13.4
683.42	14.07
683.605	13.4
683.79	14.15
683.974	13.98
684.159	13.75
684.344	13.52
684.529	14.38
684.713	13.96
684.898	14.15
685.083	14.05
685.267	14.09
685.452	14.25
685.636	14.74
685.821	14.22
686.005	14.56
686.19	14.12
686.375	15.5
686.559	14.52
686.744	14.4
686.928	14.07
687.112	13.97
687.297	14.32
687.481	14.04
687.666	13.77
687.85	14.23
688.034	14.17
688.219	14.37
688.403	14.41
688.587	14.49
688.772	14.47
688.956	14.7
689.14	14.71
689.324	15.2
689.509	14.96
689.693	15
689.877	15.03
690.061	14.86
690.245	14.82
690.43	14.7
690.614	14.94
690.798	14.82
690.982	14.65
691.166	14.59
691.35	15.18
691.534	15.1
691.718	15.28
691.902	15.01
692.086	15.03
692.27	14.52
692.454	14.75
692.638	15.3
692.822	15.6
693.006	15.57
693.19	15.92
693.373	15.82
693.557	16.18
693.741	15.66
693.925	15.61
694.109	15.46
694.293	15.52
694.476	15.57
694.66	15.78
694.844	15.59
695.027	15.92
695.211	15.76
695.395	16.22
695.578	16.22
695.762	15.38
695.946	16.36
696.129	16.06
696.313	15.77
696.497	15.97
696.68	15.45
696.864	15.95
697.047	16.24
697.231	15.81
697.414	15.6
697.598	15.26
697.781	15.28
697.965	15.11
698.148	15.45
698.331	15.26
698.515	15.79
698.698	15.94
698.881	15.68
699.065	16.19
699.248	16.18
699.431	16.17
699.615	16.25
699.798	16.22
699.981	16.06
700.165	16.04
700.348	16.25
700.531	15.93
700.714	16.32
700.897	15.53
701.08	15.82
701.264	15.55
701.447	16.02
701.63	15.72
701.813	16.14
701.996	15.88
702.179	16
702.362	16.12
702.545	16.55
702.728	15.93
702.911	16.49
703.094	16.78
703.277	16.57
703.46	16.65
703.643	17.03
703.826	16.78
704.009	16.15
704.191	16.67
704.374	16.49
704.557	16.39
704.74	16.35
704.923	16.13
705.106	15.56
705.288	15.82
705.471	15.59
705.654	15.72
705.837	15.72
706.019	16.25
706.202	16.57
706.385	16.1
706.567	15.58
706.75	16.24
706.932	15.87
707.115	15.73
707.298	15.67
707.48	15.75
707.663	15.21
707.845	16.03
708.028	16.12
708.21	16.19
708.393	16.01
708.575	15.75
708.758	15.89
708.94	16.45
709.123	16.5
709.305	16.5
709.487	15.98
709.67	16.69
709.852	16.04
710.034	16.13
710.217	16.28
710.399	15.73
710.581	15.78
710.764	16.57
710.946	16.41
711.128	16.05
711.31	15.62
711.492	15.64
711.675	15.64
711.857	15.57
712.039	15.95
712.221	15.89
712.403	15.71
712.585	15.75
712.767	15.49
712.949	15.61
713.131	16.13
713.314	16.05
713.496	15.98
713.678	16.03
713.86	15.87
714.041	15.79
714.223	15.27
714.405	15.88
714.587	15.27
714.769	15.19
714.951	15.85
715.133	15.72
715.315	16.27
715.497	16.21
715.678	16.31
715.86	15.68
716.042	15.92
716.224	16.4
716.406	15.92
716.587	15.99
716.769	15.89
716.951	15.74
717.132	15.87
717.314	15.42
717.496	15.68
717.677	15.44
717.859	15.56
718.041	15.68
718.222	15
718.404	15
718.585	15.59
718.767	15.38
718.948	15.47
719.13	15.82
719.311	15.65
719.493	15.79
719.674	15.92
719.856	15.87
720.037	15.76
720.219	15.54
720.4	15.96
720.581	15.51
720.763	15.37
720.944	15.7
721.125	15.43
721.307	15.43
721.488	15.36
721.669	15.24
721.85	15.13
722.032	15.22
722.213	15.27
722.394	15.45
722.575	15.2
722.756	15.04
722.938	14.9
723.119	14.8
723.3	15.09
723.481	15.31
723.662	15.09
723.843	15.02
724.024	15.09
724.205	15.16
724.386	15.05
724.567	14.88
724.748	15.3
724.929	15.35
725.11	15.56
725.291	15.83
725.472	16.15
725.653	15.77
725.834	15.62
726.015	15.29
726.196	14.9
726.377	15.32
726.557	14.97
726.738	15.17
726.919	15.58
727.1	15
727.281	15.42
727.461	15.66
727.642	15.78
727.823	15.17
728.004	15.65
728.184	15.94
728.365	15.87
728.546	15.29
728.726	15.48
728.907	15.38
729.087	15.18
729.268	15.2
729.449	15.32
729.629	14.43
729.81	14.83
729.99	14.94
730.171	14.35
730.351	14.22
730.532	14.64
730.712	14.1
730.893	14.48
731.073	14.36
731.253	14.27
731.434	14.97
731.614	14.4
731.795	14.07
731.975	14.21
732.155	14.21
732.336	14.68
732.516	14.64
732.696	14.42
732.876	14.5
733.057	14.38
733.237	14.26
733.417	13.93
733.597	13.8
733.778	14.81
733.958	13.96
734.138	13.96
734.318	14.05
734.498	14.07
734.678	14.21
734.858	14.04
735.038	14.75
735.218	15.15
735.398	14.27
735.579	14.88
735.759	14.62
735.939	14.37
736.119	14.81
736.298	14.84
736.478	14
736.658	14.81
736.838	14.59
737.018	14.5
737.198	14.26
737.378	14.84
737.558	14.66
737.738	15.04
737.917	14.99
738.097	14.85
738.277	13.9
738.457	14.73
738.637	13.76
738.816	13.8
738.996	13.96
739.176	14.38
739.355	14.15
739.535	14.34
739.715	13.49
739.894	13.86
740.074	13.51
740.254	13.95
740.433	13.56
740.613	13.56
740.792	14.27
740.972	14.27
741.151	13.56
741.331	13.82
741.51	14.11
741.69	13.5
741.869	14.94
742.049	14.89
742.228	14.79
742.408	13.85
742.587	14.4
742.766	14.52
742.946	14.28
743.125	14.35
743.305	14.24
743.484	14.32
743.663	14.07
743.842	14.47
744.022	14.11
744.201	14.04
744.38	14.09
744.56	13.76
744.739	14.09
744.918	13.57
745.097	13.7
745.276	14.11
745.455	13.56
745.635	14.11
745.814	13.57
745.993	13.83
746.172	14.04
746.351	14.19
746.53	13.91
746.709	13.25
746.888	13.97
747.067	13.39
747.246	13.88
747.425	13.92
747.604	13.43
747.783	13.7
747.962	13.66
748.141	14.53
748.32	14
748.499	14.74
748.677	13.88
748.856	14.19
749.035	14.23
749.214	14.11
749.393	14.15
749.572	14.14
749.75	13.99
749.929	14.38
750.108	13.8
750.287	14.38
750.465	14.24
750.644	14.73
750.823	13.73
751.001	13.86
751.18	14
751.359	13.07
751.537	13.56
751.716	13.92
751.894	12.94
752.073	13.35
752.251	13.17
752.43	13.75
752.609	13.39
752.787	14.01
752.966	13.64
753.144	13.62
753.322	13.34
753.501	12.95
753.679	13.16
753.858	13.06
754.036	12.5
754.215	12.55
754.393	12.99
754.571	12.58
754.75	12.74
754.928	13.31
755.106	13.04
755.284	13.52
755.463	13.84
755.641	13.01
755.819	13.25
755.997	14.38
756.176	13.83
756.354	14.11
756.532	14.14
756.71	13.32
756.888	13.31
757.066	14.12
757.245	13.68
757.423	13.13
757.601	12.71
757.779	12.31
757.957	13.84
758.135	13.11
758.313	13.08
758.491	13.41
758.669	13.21
758.847	13.56
759.025	13.19
759.203	13.37
759.381	13.57
759.559	13.31
759.737	13.02
759.915	12.65
760.092	12.6
760.27	13.35
760.448	13.06
760.626	13.48
760.804	12.95
760.981	13.57
761.159	12.96
761.337	13.19
761.515	13.79
761.692	13.12
761.87	13.39
762.048	12.25
762.226	13.51
762.403	12.92
762.581	12.95
762.759	13.18
762.936	13.49
763.114	13.58
763.291	13.37
763.469	13.47
763.647	13.96
763.824	13.39
764.002	13.15
764.179	13.68
764.357	13.3
764.534	13.69
764.712	12.76
764.889	13.39
765.066	13.36
765.244	11.92
765.421	12.23
765.599	13.51
765.776	12.63
765.953	11.95
766.131	12.48
766.308	12.73
766.485	13.52
766.663	12.69
766.84	13.12
767.017	12.46
767.194	12.71
767.372	12.81
767.549	12.83
767.726	12.67
767.903	12.88
768.081	12.02
768.258	13.45
768.435	12.29
768.612	13.98
768.789	13.1
768.966	12.53
769.143	13.15
769.32	13.1
769.497	13.74
769.674	12.04
769.851	13.73
770.028	12.08
770.205	13.25
770.382	12.93
770.559	12.29
770.736	13.34
770.913	13.15
771.09	14.19
771.267	12.77
771.444	13.04
771.621	12.72
771.798	12.86
771.975	12.86
772.151	13.81
772.328	13.58
772.505	12.85
772.682	14.05
772.859	14.27
773.035	12.91
773.212	12.87
773.389	12.75
773.565	12.72
773.742	12.82
773.919	12.42
774.096	12.45
774.272	12.34
774.449	13.06
774.625	12.7
774.802	12.47
774.979	13.31
775.155	13.47
775.332	12.07
775.508	13.31
775.685	12.59
775.861	13.2
776.038	13.31
776.214	11.49
776.391	12.68
776.567	12.42
776.744	13.01
776.92	13.37
777.096	12.5
777.273	13.57
777.449	13.66
777.626	12.38
777.802	12.36
777.978	12.35
778.155	11.65
778.331	12.17
778.507	13.15
778.683	12.16
778.86	11.98
779.036	13.24
779.212	12.18
779.388	12.11
779.565	10.61
779.741	11.97
779.917	11.43
780.093	10.96
780.269	10.56
780.445	11.85
780.621	12.59
780.797	11.59
780.974	10.95
781.15	12.09
781.326	11.77
781.502	11.62
781.678	11.51
781.854	11.94
782.03	10.72
782.206	12.06
782.382	11.41
782.558	12.45
782.733	12.44
782.909	12.34
783.085	13.24
783.261	13.11
783.437	11.52
783.613	11.75
783.789	12.81
783.965	13.22
784.14	12.08
784.316	11.67
784.492	11.93
784.668	10.69
784.843	11.09
785.019	12.82
785.195	10.37
785.371	14.19
785.546	11.23
785.722	12.76
785.898	12.57
786.073	12.41
786.249	12.56
786.424	11.5
786.6	11.51
786.776	12.17
786.951	12.13
787.127	12.64
787.302	12.26
787.478	10.49
787.653	10.59
787.829	11.81
788.004	11.97
788.18	11.38
788.355	11.97
788.531	10.89
788.706	11.18
788.881	10.1
789.057	12.58
789.232	11.54
789.408	12.38
789.583	11.98
789.758	12.23
789.934	9.83
790.109	10.33
790.284	11.76
790.459	10.69
790.635	13.97
790.81	11.87
790.985	11.78
791.16	10.36
791.336	11.28
791.511	10.72
791.686	12.14
791.861	12.25
792.036	12.43
792.211	10.19
792.387	10.8
792.562	9.87
792.737	9.69
792.912	13.51
793.087	10.95
793.262	11.21
793.437	11.64
793.612	11.02
793.787	11.73
793.962	11.13
794.137	13.29
794.312	9.8
794.487	9.71
794.662	11.37
794.837	12.73
795.011	11.39
795.186	12.39
795.361	11.48
795.536	11.72
795.711	9.53
795.886	10.96
796.06	10.43
796.235	11.06
796.41	8.28
796.585	11.43
796.76	8.62
796.934	11.92
797.109	12.58
797.284	11.19
797.458	11
797.633	12.3
797.808	8.39
797.982	10.66
798.157	11.63
798.332	13.64
798.506	11.93
798.681	10.25
798.855	12.69
799.03	12.07
799.204	11.93
799.379	13.01
799.553	7.91
799.728	8.27
799.902	10.99
800.077	10.83
800.251	11.33
800.426	13.97
800.6	10.71
800.775	11.36
800.949	12.31
801.123	12.58
801.298	11.01
801.472	12.13
801.647	11.07
801.821	10.8
801.995	9.6
802.169	9.76
802.344	9.72
802.518	12.87
802.692	9.33
802.867	12.57
803.041	12.45
803.215	9.75
803.389	12.29
803.563	10.54
803.737	10.86
803.912	11.95
804.086	8.94
804.26	13.12
804.434	7.63
804.608	9.32
804.782	9.84
804.956	12.63
805.13	10.3
805.304	8.81
805.478	11.77
805.652	13.08
805.826	15.6
806	9.77
806.174	11.23
806.348	13.41
806.522	8.88
806.696	11.23
806.87	12.23
807.044	9.83
807.218	11.09
807.392	11.85
807.566	11.79
807.739	9.3
807.913	8.41
808.087	14.66
808.261	6.63
808.435	11.92
808.608	11.47
808.782	6.39
808.956	4.92
809.13	5.37
809.303	12.23
809.477	8.54
809.651	13.97
809.824	9.22
809.998	10.18
810.172	12.47
810.345	12.08
810.519	9.04
810.692	9.16
810.866	9.78
811.04	10.26
811.213	11.97
811.387	10.15
811.56	8.07
811.734	10.79
811.907	12.79
812.081	8.9
812.254	8.69
812.428	8.83
812.601	9.49
812.774	9.41
812.948	11.29
813.121	12.02
813.295	11.39
813.468	8.18
813.641	7.81
813.815	11.86
813.988	12.31
814.161	8.81
814.335	12.1
814.508	7.7
814.681	7.85
814.854	8.31
815.028	10.57
815.201	10.47
815.374	9.87
815.547	6.33
815.72	9.72
815.894	13.7
816.067	14.38
816.24	11.52
816.413	11.75
816.586	10.63
816.759	13.67
816.932	12.22
817.105	12
817.278	11.93
817.452	9.61
817.625	12.95
817.798	11.14
817.971	10.37
818.144	11.25
818.317	11.75
818.49	10.29
818.662	12.16
818.835	11.38
819.008	8.52
819.181	8.74
819.354	15.69
819.527	16.41
819.7	8.6
819.873	8.25
820.046	12.81
820.218	11.69
820.391	11.36
820.564	13.22
820.737	10.42
820.909	13.84
821.082	9.23
821.255	10.31
821.428	12.01
821.6	14.77
821.773	12.04
821.946	8.89
822.118	14.79
822.291	12.25
822.464	5.92
822.636	11.9
822.809	10.62
822.982	9.44
823.154	12.37
823.327	8.89
823.499	8.43
823.672	15.05
823.844	6.29
824.017	10.97
824.189	8.63
824.362	8.97
824.534	9.07
824.707	10.19
824.879	9.62
825.052	8.69
825.224	10.2
825.396	7.97
825.569	10.49
825.741	7.48
825.914	8.39
826.086	12.22
826.258	14.76
826.431	13.34
826.603	11.47
826.775	11.09
826.947	10.26
827.12	14.55
827.292	14.26
827.464	10.23
827.636	10.78
827.809	11.42
827.981	9.32
828.153	9.11
828.325	8.17
828.497	14
828.669	8.2
828.842	5.43
829.014	13.81
829.186	10.65
829.358	10.93
829.53	8.43
829.702	5.11
829.874	14.81
830.046	9.07
830.218	11.78
830.39	6.27
830.562	12.47
830.734	11.81
830.906	7.38
831.078	9.7
831.25	7.53
831.422	4.48
831.594	10.16
831.766	11.95
831.937	9.03
832.109	12.3
832.281	6.96
832.453	8.55
832.625	7.46
832.797	9.81
832.968	6.73
833.14	10.83
833.312	10.48
833.484	11.11
833.655	8.26
833.827	7.33
833.999	12.12
834.171	9.4
834.342	12.61
834.514	10.8
834.686	12.16
834.857	11.34
835.029	6.53
835.2	10.31
835.372	9.11
835.544	10.65
835.715	9.37
835.887	10.11
836.058	3.96
836.23	10.05
836.401	9.47
836.573	10.03
836.744	8.34
836.916	9.01
837.087	7.27
837.259	9.71
837.43	7.34
837.602	10.6
837.773	9.36
837.945	11.49
838.116	9.43
838.287	2.9
838.459	7.41
838.63	9.03
838.801	12.02
838.973	7.42
839.144	10.69
839.315	10.63
839.487	13.09
839.658	9.84
839.829	14.6
840	8.49
840.172	7.74
840.343	5.64
840.514	12.12
840.685	12.36
840.856	10.7
841.027	9.49
841.199	13.29
841.37	10.89
841.541	9.94
841.712	13.99
841.883	11.92
842.054	6.54
842.225	15.07
842.396	12.6
842.567	3.37
842.738	10.06
842.909	15.45
843.08	7.96
843.251	11.65
843.422	6.46
843.593	11.97
843.764	5.93
843.935	9.17
844.106	10.02
844.277	12.64
844.448	13.52
844.619	8.28
844.79	10.9
844.96	14.66
845.131	13.19
845.302	5.77
845.473	9.81
845.644	10.16
845.814	10.4
845.985	9.2
846.156	9.89
846.327	5.89
846.497	6.2
846.668	7.48
846.839	7.03
847.01	7.08
847.18	8.34
847.351	11.06
847.522	12.19
847.692	11.24
847.863	12.04
848.033	6.24
848.204	12.81
848.375	2.29
848.545	10.09
848.716	14.7
848.886	12.47
849.057	9.66
849.227	5.78
849.398	9
849.568	6.98
849.739	9.46
849.909	3.57
850.08	6.25
850.25	10.01
850.421	9.74
850.591	15.14
850.761	2.85
850.932	5.98
851.102	5.23
851.272	6.71
851.443	5.54
851.613	6.38
851.783	12.03
851.954	2.81
852.124	9.63
852.294	3.64
852.465	13.03
852.635	6.28
852.805	1.89
852.975	4.16
853.145	8.84
853.316	9.28
853.486	5.28
853.656	15.24
853.826	10.21
853.996	7.02
854.166	5.55
854.337	4.17
854.507	7.09
854.677	9.58
854.847	18.28
855.017	3.47
855.187	10.24
855.357	2.02
855.527	10.31
855.697	10.61
855.867	4.46
856.037	8.13
856.207	8.37
856.377	5.92
856.547	6.05
856.717	12.78
856.887	6.89
857.057	13.34
857.227	8.51
857.397	13.2
857.566	11.09
857.736	4.48
857.906	10.39
858.076	14.41
858.246	8.4
858.416	4.19
858.585	11.51
858.755	9.64
858.925	6.89
859.095	5
859.264	11.42
859.434	5.47
859.604	11.38
859.774	3.21
859.943	0.18
860.113	6.33
860.283	12.53
860.452	5.44
860.622	11.19
860.791	4.21
860.961	5.37
861.131	3.52
861.3	5.97
861.47	8.21
861.639	7.66
861.809	13.22
861.978	5.52
862.148	6.26
862.318	13.97
862.487	0.59
862.657	4.97
862.826	5.12
862.995	1.81
863.165	18.94
863.334	2.77
863.504	10.68
863.673	9.94
863.843	10.26
864.012	7.41
864.181	9.96
864.351	4.18
864.52	-2.84
864.689	2.75
864.859	2.84
865.028	7.44
865.197	-5.45
865.366	6.77
865.536	8.54
865.705	15.08
865.874	4.02
866.043	3.6
866.213	-2.63
866.382	-1.89
866.551	1.99
866.72	17.29
866.889	9.78
867.059	2.17
867.228	7.32
867.397	2.08
867.566	2.33
867.735	14.54
867.904	0.67
868.073	8.63
868.242	9.99
868.411	3.62
868.58	8.66
868.749	14.63
868.918	7.92
869.087	11.65
869.256	4.76
869.425	7.83
869.594	3.01
869.763	15.39
869.932	12.33
870.101	-3.69
870.27	0.46
870.439	-1.22
870.608	-0.65
870.777	10.17
870.945	8.53
871.114	5.62
871.283	0.49
871.452	8.15
871.621	17.33
871.789	5.14
871.958	0.97
872.127	-2.4
872.296	-3.36
872.464	6.63
872.633	7.57
872.802	2.43
872.971	7.31
873.139	8.7
873.308	14.11
873.477	7.26
873.645	5.88
873.814	9.87
873.983	-9.81
874.151	-0.7
874.32	3.57
874.488	10.42
874.657	3.24
874.826	14.99
874.994	17.91
875.163	-2.56
875.331	3.16
875.5	16.19
875.668	18.33
875.837	8.2
876.005	1.25
876.174	4.89
876.342	5.43
876.51	5.92
876.679	12.62
876.847	11.06
877.016	-6.21
877.184	7.64
877.352	-2.25
877.521	15.7
877.689	7.05
877.857	-2.99
878.026	3.33
878.194	4.76
878.362	1.89
878.531	1.24
878.699	3.76
878.867	-1.86
879.036	5.14
879.204	11.07
879.372	3.84
879.54	5.26
879.708	15.45
879.877	8.37
880.045	1.81
880.213	7.9
880.381	11.79
880.549	11.37
880.717	10.64
880.885	11.89
881.054	-1.48
881.222	16.3
881.39	6.03
881.558	11.82
881.726	-8.7
881.894	9.96
882.062	8.22
882.23	0
882.398	12.89
882.566	-6.7
882.734	9.64
882.902	12.84
883.07	0
883.238	10.23
883.406	0.93
883.574	-9.55
883.741	2.85
883.909	6.79
884.077	19.85
884.245	6.51
884.413	-6.07
884.581	1.06
884.749	16.48
884.916	2.31
885.084	14.66
885.252	9.53
885.42	-2.41
885.587	13.21
885.755	1.03
885.923	0.93
886.091	-7.88
886.258	3.81
886.426	-6.31
886.594	0.93
886.761	9.48
886.929	1.88
887.097	16.22
887.264	2.34
887.432	-2.73
887.6	-19.26
887.767	18.08
887.935	11.28
888.102	14.1
888.27	0.67
888.438	15.51
888.605	0.35
888.773	3.78
888.94	15.24
889.108	-14.27
889.275	-4.37
889.443	11.44
889.61	14.45
889.778	3.89
889.945	-11.99
890.112	-0.7
890.28	-0.31
890.447	6.07
890.615	13.67
890.782	21.1
890.949	4.36
891.117	-6.01
891.284	25.41
891.452	4.03
891.619	1.89
891.786	-2.94
891.953	5.71
892.121	15.18
892.288	8.15
892.455	4
892.623	5.17
892.79	-2.64
892.957	0
893.124	10.92
893.291	-5.39
893.459	5.95
893.626	10.25
893.793	-7.99
893.96	15.68
894.127	10.19
894.294	-5.51
894.461	2.31
894.629	7.95
894.796	2.88
894.963	-4.34
895.13	12.84
895.297	3.65
895.464	2.6
895.631	7.62
895.798	16.23
895.965	19.7
896.132	-11.79
896.299	3.71
896.466	17.37
896.633	9.38
896.8	-5.7
896.967	12.3
897.134	0.96
897.301	-1.32
897.467	2.58
897.634	0.69
897.801	11.65
897.968	-1.34
898.135	10.1
898.302	7.82
898.469	-7
898.635	-5.88
898.802	-2.85
898.969	13.44
899.136	15.77
899.303	7.46
