Data from x0_Transmission_15-12-53-380.txt Node
Date: Thu May 02 15:12:53 EDT 2019
User: dh1006
Spectrometer: USB4E01358
Autoset integration time: false
Trigger mode: 4
Integration Time (sec): 8.000000E-2
Scans to average: 1
Electric dark correction enabled: true
Nonlinearity correction enabled: false
Boxcar width: 0
Stray light correction enabled: false
XAxis mode: Wavelengths
Stop averaging: false
Number of Pixels in Spectrum: 3648
>>>>>Begin Spectral Data<<<<<
176.727	-213.33
176.966	-213.33
177.205	-213.33
177.444	108.99
177.683	278.61
177.922	84.69
178.161	337.96
178.4	-183
178.638	1975
178.877	-168.12
179.116	206.32
179.355	1472.73
179.593	-25.5
179.832	-157.07
180.071	-37.72
180.309	-4200
180.548	-16.2
180.786	15.89
181.025	-300
181.263	-13.1
181.502	164.29
181.74	101.82
181.979	-43.1
182.217	165.9
182.456	129.94
182.694	62.03
182.932	93.1
183.17	16.73
183.409	-61.22
183.647	90.71
183.885	302.11
184.123	28.62
184.361	205.04
184.6	181.73
184.838	-3188.89
185.076	1371.43
185.314	3.05
185.552	153.49
185.79	49.8
186.028	75.16
186.266	155.71
186.503	91.52
186.741	51.35
186.979	-0.25
187.217	-1925
187.455	93.28
187.693	42.66
187.93	86.12
188.168	1027.08
188.406	88.19
188.643	-18.29
188.881	152.17
189.119	111.39
189.356	-131.48
189.594	92.36
189.831	172.73
190.069	98.92
190.306	59.57
190.543	65.93
190.781	160.96
191.018	101.63
191.256	-129.51
191.493	-93.79
191.73	43.15
191.967	326.79
192.205	-45.65
192.442	-66.83
192.679	1000
192.916	179.38
193.153	74.69
193.39	1.79
193.628	377.58
193.865	-38.08
194.102	-21.43
194.339	-11.11
194.576	-32.49
194.813	87.61
195.049	203.75
195.286	102.82
195.523	-9.96
195.76	175.15
195.997	231.18
196.234	102.72
196.47	146.98
196.707	-115.67
196.944	-76.41
197.18	21.23
197.417	-71.48
197.654	35.77
197.89	57.5
198.127	78.92
198.363	13.79
198.6	52.48
198.836	277.78
199.073	47.34
199.309	103.9
199.546	-8.67
199.782	-183.49
200.018	263.33
200.255	74.21
200.491	-239.53
200.727	42.11
200.963	45.77
201.199	-129.08
201.436	50.56
201.672	17.69
201.908	9.22
202.144	87.64
202.38	69.47
202.616	41.34
202.852	129.04
203.088	36.44
203.324	1.05
203.56	-141.46
203.796	146.2
204.032	13.53
204.268	404.17
204.503	228.12
204.739	-67.05
204.975	156.76
205.211	208.44
205.446	48.45
205.682	51.7
205.918	-1176.74
206.153	-15.19
206.389	241.67
206.625	271.84
206.86	42.73
207.096	171.25
207.331	46.67
207.567	-125.27
207.802	-193.88
208.037	95.65
208.273	85.59
208.508	386.11
208.744	-71.93
208.979	40.2
209.214	-1275
209.449	131.77
209.685	-79.61
209.92	195.95
210.155	136.97
210.39	176.06
210.625	1069.64
210.86	-274.1
211.095	267.16
211.33	49.87
211.565	-468.52
211.8	-165.52
212.035	323.14
212.27	88.29
212.505	-14.18
212.74	36.55
212.975	1000
213.21	195.38
213.444	67.48
213.679	-43.5
213.914	-7.25
214.149	16.34
214.383	70.5
214.618	70.5
214.853	-16.31
215.087	-20.43
215.322	197.87
215.556	33.17
215.791	62.79
216.025	108.26
216.26	118.84
216.494	543.24
216.729	350
216.963	58.87
217.197	25.58
217.432	30.74
217.666	-14.63
217.9	-17.29
218.135	59.41
218.369	-877.78
218.603	209.88
218.837	107.35
219.071	55.47
219.306	76.38
219.54	128.82
219.774	137.55
220.008	182.63
220.242	86.78
220.476	2682.35
220.71	113.97
220.944	54.27
221.178	-93.9
221.411	-8.62
221.645	13.91
221.879	73.83
222.113	-386.67
222.347	117.46
222.58	39.54
222.814	48.33
223.048	-179.63
223.281	58.27
223.515	355.75
223.749	25
223.982	91.83
224.216	532
224.449	-0.66
224.683	-12.53
224.916	157.41
225.15	96.95
225.383	272
225.617	58.12
225.85	92.62
226.083	253.91
226.317	85.27
226.55	59.3
226.783	650.93
227.016	93.86
227.25	-448.57
227.483	-625
227.716	-68.49
227.949	61.43
228.182	82.59
228.415	45.57
228.648	-96.88
228.881	177.11
229.114	-102.25
229.347	107.8
229.58	64
229.813	41.77
230.046	133.33
230.279	76.14
230.512	105.62
230.745	17.94
230.977	27.26
231.21	94.26
231.443	27.25
231.675	235.29
231.908	694.12
232.141	130.57
232.373	-382.11
232.606	106.8
232.839	52.41
233.071	-68.89
233.304	-68.56
233.536	315.79
233.769	119.35
234.001	74.76
234.233	-107.41
234.466	34.63
234.698	114.22
234.93	-134.14
235.163	73.97
235.395	365.12
235.627	79.17
235.86	-262.32
236.092	29.95
236.324	14.07
236.556	20.24
236.788	75.9
237.02	-3.38
237.252	49.83
237.484	38.77
237.716	263.33
237.948	107.59
238.18	516.53
238.412	131.16
238.644	228.12
238.876	106.25
239.108	218.35
239.34	424.59
239.571	26.9
239.803	79.52
240.035	56.95
240.267	64.61
240.498	-4055.56
240.73	-662.3
240.962	26.63
241.193	122.38
241.425	50.86
241.656	-141.01
241.888	81.52
242.119	46.77
242.351	-300
242.582	18.87
242.814	194.21
243.045	99.48
243.277	417.91
243.508	-264.86
243.739	113.29
243.971	76.75
244.202	33.29
244.433	271.1
244.664	9.35
244.896	37.34
245.127	78.77
245.358	-508.93
245.589	158.38
245.82	235.73
246.051	55.61
246.282	89.13
246.513	-51.69
246.744	52.23
246.975	476.83
247.206	240.59
247.437	11.27
247.668	-95.37
247.899	61.86
248.129	-40
248.36	45.27
248.591	-20.18
248.822	12.76
249.052	320.9
249.283	66.44
249.514	36.74
249.744	24.33
249.975	70.25
250.206	34.38
250.436	83.28
250.667	504.32
250.897	40.41
251.128	40.21
251.358	-124.32
251.589	108.06
251.819	96.19
252.049	127.08
252.28	85.27
252.51	0.16
252.74	150.5
252.971	5875
253.201	140.94
253.431	45.34
253.661	12.74
253.891	252.5
254.121	33.78
254.352	116
254.582	-522.86
254.812	62.55
255.042	-19.1
255.272	54.86
255.502	102.72
255.732	-155.56
255.962	-236.07
256.192	27.52
256.421	17.49
256.651	96.41
256.881	121.78
257.111	114.79
257.341	93.3
257.57	60.58
257.8	87.61
258.03	35.93
258.259	63.42
258.489	55.45
258.719	76.52
258.948	-22.55
259.178	9.24
259.407	-35.4
259.637	52.86
259.866	81.87
260.096	46.23
260.325	271.1
260.555	213.45
260.784	29.96
261.013	-346.43
261.243	65.55
261.472	-89.19
261.701	173.78
261.931	143.18
262.16	-5.23
262.389	168.53
262.618	-98.11
262.847	154.22
263.076	165.47
263.305	-30.45
263.535	43.4
263.764	110.1
263.993	59.85
264.222	40.84
264.451	44.7
264.679	36.44
264.908	30.86
265.137	45.9
265.366	62.26
265.595	68.71
265.824	63.76
266.053	121.67
266.281	-172.25
266.51	86.04
266.739	-49.6
266.967	46.56
267.196	10425
267.425	69.54
267.653	52.29
267.882	59.41
268.11	153.97
268.339	-21.69
268.567	-85.38
268.796	55.04
269.024	953.57
269.253	-64.57
269.481	97.45
269.709	28.55
269.938	148.54
270.166	0.16
270.394	31.91
270.623	69.62
270.851	102.92
271.079	-11.43
271.307	46.26
271.535	-45.65
271.764	34.03
271.992	170.21
272.22	-38.76
272.448	-128.95
272.676	266.37
272.904	175.17
273.132	14.96
273.36	-22.61
273.588	23.5
273.816	56.91
274.043	33.26
274.271	105.19
274.499	12
274.727	-396.3
274.955	36.9
275.182	55.6
275.41	-76.34
275.638	61.37
275.866	620.83
276.093	110.53
276.321	55.66
276.548	63.42
276.776	14.38
277.003	54.23
277.231	-262.86
277.458	5.88
277.686	90
277.913	382.5
278.141	27.76
278.368	7.27
278.595	34.14
278.823	128.05
279.05	23.83
279.277	-34.84
279.505	-4.14
279.732	-20.32
279.959	-225.71
280.186	3.44
280.413	-44.64
280.641	30.64
280.868	-23.29
281.095	142.44
281.322	-1340
281.549	18.47
281.776	0.18
282.003	72.76
282.23	63.1
282.457	194.75
282.683	72.91
282.91	-72.5
283.137	57.22
283.364	1354.55
283.591	-32.35
283.818	-3225
284.044	395.35
284.271	13.21
284.498	120.46
284.724	41.41
284.951	-40.34
285.178	92.11
285.404	79.32
285.631	128.93
285.857	79.17
286.084	-17.92
286.31	-16.36
286.537	-26.79
286.763	51.39
286.99	39.49
287.216	1000
287.442	-326.53
287.669	-3.82
287.895	93.7
288.121	46.04
288.347	38.66
288.574	-46.04
288.8	-13.56
289.026	-14.39
289.252	210.56
289.478	68.66
289.704	15.2
289.931	7.89
290.157	41.34
290.383	23.62
290.609	29.24
290.835	143.9
291.06	72.84
291.286	37.8
291.512	210.98
291.738	119.35
291.964	23.82
292.19	5.88
292.416	105.38
292.641	121.62
292.867	54.55
293.093	-77.14
293.319	33.88
293.544	-39.02
293.77	189.25
293.995	11.52
294.221	-15.24
294.447	43.76
294.672	33.19
294.898	69.67
295.123	119.04
295.349	90.82
295.574	239.02
295.799	63.28
296.025	-52.93
296.25	2.97
296.476	90
296.701	36.87
296.926	80.55
297.151	-152.27
297.377	108.57
297.602	-102.53
297.827	48.67
298.052	211.88
298.277	45.34
298.502	-17.56
298.727	167.45
298.953	26.78
299.178	26.13
299.403	183.42
299.628	23.41
299.852	191.6
300.077	-2747.06
300.302	12.6
300.527	-42.64
300.752	-84.07
300.977	480
301.202	-278.69
301.426	78.74
301.651	-12.14
301.876	458.33
302.101	-35.86
302.325	-32.54
302.55	-32.49
302.775	145.11
302.999	133.33
303.224	-20.14
303.448	16.46
303.673	-432.41
303.897	130.39
304.122	27.01
304.346	-15.44
304.571	73.59
304.795	221.77
305.019	101.66
305.244	50.55
305.468	771.62
305.692	101.82
305.917	215.7
306.141	-46
306.365	-44.26
306.589	-64.76
306.813	35.13
307.038	-77.14
307.262	94.72
307.486	80.71
307.71	1650
307.934	49.09
308.158	173.41
308.382	61.43
308.606	-80.21
308.83	27.89
309.054	-115.11
309.278	27.07
309.502	101.28
309.725	-119.65
309.949	81.12
310.173	88.51
310.397	98.14
310.62	155.97
310.844	113
311.068	25
311.292	28.79
311.515	39.07
311.739	756.25
311.962	-91.27
312.186	23.09
312.41	53.62
312.633	47.03
312.857	65.96
313.08	-588.89
313.303	49.79
313.527	63.8
313.75	111.88
313.974	-89.39
314.197	66.06
314.42	90.3
314.644	125.5
314.867	79.17
315.09	48.73
315.313	50.65
315.536	37.44
315.76	-13.1
315.983	131.2
316.206	-6.91
316.429	8.75
316.652	17.78
316.875	30.83
317.098	37.04
317.321	72.79
317.544	25
317.767	61.37
317.99	48.27
318.213	47.34
318.436	4.43
318.658	60.19
318.881	129.66
319.104	3.33
319.327	67.74
319.55	88.45
319.772	44.67
319.995	393.33
320.218	51.31
320.44	484.13
320.663	175.13
320.885	0.25
321.108	73.21
321.331	-27.79
321.553	-127.22
321.776	6200
321.998	44.38
322.22	-62.09
322.443	39.77
322.665	196.89
322.888	89.41
323.11	122.56
323.332	-18.11
323.555	-13.24
323.777	15.5
323.999	-37.83
324.221	91.34
324.443	90
324.666	3.76
324.888	41.85
325.11	97.52
325.332	105.03
325.554	141.51
325.776	27.44
325.998	395.35
326.22	736.23
326.442	-13.56
326.664	68.07
326.886	80.19
327.108	22.76
327.33	243.11
327.551	41.19
327.773	-16.23
327.995	-20.18
328.217	-1.64
328.439	32.1
328.66	9.02
328.882	0.83
329.104	-67.86
329.325	37.18
329.547	72.54
329.769	4.62
329.99	78.29
330.212	1362.3
330.433	75.23
330.655	85.34
330.876	153.56
331.098	893.44
331.319	38.83
331.54	59.81
331.762	102.38
331.983	88.96
332.204	125.56
332.426	59.41
332.647	-0.56
332.868	61
333.089	49.66
333.311	25
333.532	60.63
333.753	-1080
333.974	59.41
334.195	-102.17
334.416	139.22
334.637	63.44
334.858	19.55
335.079	178.95
335.3	-27.53
335.521	26.63
335.742	397.1
335.963	79.58
336.184	132.33
336.405	57.56
336.626	7.35
336.846	177.22
337.067	52.86
337.288	51.78
337.509	-950
337.729	41.58
337.95	32.56
338.171	196.48
338.391	68.19
338.612	89.26
338.833	1108.33
339.053	209.73
339.274	68.59
339.494	14.11
339.715	71.43
339.935	12.66
340.156	47.03
340.376	43.36
340.596	87.3
340.817	-114.29
341.037	103.16
341.257	102.12
341.478	63.6
341.698	21.47
341.918	25
342.138	37.4
342.359	-6.45
342.579	-1.8
342.799	0.38
343.019	126.99
343.239	49.31
343.459	118.64
343.679	65.15
343.899	49.88
344.119	56.73
344.339	33.23
344.559	51.48
344.779	-71.52
344.999	-12.13
345.219	41.19
345.439	7.09
345.658	4322.22
345.878	-570.83
346.098	5.88
346.318	12.14
346.537	1827.27
346.757	119.35
346.977	53.01
347.196	57.46
347.416	86.18
347.636	-6.75
347.855	-81.51
348.075	5.3
348.294	268.75
348.514	169.44
348.733	80.55
348.953	-176.84
349.172	35.11
349.392	27.56
349.611	71.95
349.83	60.33
350.05	-47.67
350.269	75.64
350.488	59.86
350.707	372.41
350.927	28.96
351.146	45.51
351.365	-50.52
351.584	69.32
351.803	14.96
352.023	31.33
352.242	34.21
352.461	104.44
352.68	93.63
352.899	25
353.118	-66.87
353.337	123.48
353.556	-87.13
353.775	103.99
353.993	-42.64
354.212	84.82
354.431	22.51
354.65	61.67
354.869	9.92
355.088	45.06
355.306	25
355.525	27.85
355.744	54.09
355.962	-41.4
356.181	-36.49
356.4	-3.51
356.618	44.55
356.837	-19.54
357.055	25
357.274	113.64
357.492	-179.63
357.711	61.27
357.929	58.47
358.148	-311.56
358.366	140.94
358.585	-241.57
358.803	81.85
359.021	367.26
359.24	57.9
359.458	-135.74
359.676	61.88
359.894	11
360.113	113.46
360.331	22.4
360.549	777.14
360.767	37.69
360.985	272.39
361.203	49.81
361.421	43.76
361.639	38.83
361.857	51.89
362.075	-30.33
362.293	97.65
362.511	-188.92
362.729	17.93
362.947	2.28
363.165	49.37
363.383	3.98
363.601	57.5
363.819	175.13
364.036	55.35
364.254	303.81
364.472	4.13
364.689	110.14
364.907	80.81
365.125	382.5
365.342	-59.54
365.56	84.17
365.778	-8.74
365.995	-105
366.213	7.53
366.43	49.81
366.648	-6.6
366.865	28.82
367.083	150.27
367.3	-132.58
367.517	64.39
367.735	33.25
367.952	58.12
368.17	20.6
368.387	91.03
368.604	17.31
368.821	139.31
369.039	36.44
369.256	30.41
369.473	44.98
369.69	4.09
369.907	350
370.124	54.55
370.341	88.73
370.558	112.78
370.776	49.91
370.993	159.5
371.21	-43.66
371.426	20.63
371.643	22.74
371.86	109.92
372.077	-22.07
372.294	56.51
372.511	13.12
372.728	15.74
372.945	65.15
373.161	10.64
373.378	137.13
373.595	0.21
373.811	42.79
374.028	34.08
374.245	37.86
374.461	144.3
374.678	71.71
374.895	42.21
375.111	-13.56
375.328	87.56
375.544	139.19
375.761	17.5
375.977	46.91
376.194	39.92
376.41	30.7
376.626	28.05
376.843	41.6
377.059	19.21
377.275	33.29
377.492	41.27
377.708	41.19
377.924	42.94
378.14	-53.38
378.357	105.98
378.573	-44.94
378.789	24.71
379.005	69.95
379.221	-16.36
379.437	7.63
379.653	-46.47
379.869	21.19
380.085	-55.24
380.301	41.52
380.517	77.16
380.733	38.73
380.949	12.14
381.165	28.19
381.381	-6.4
381.597	45.48
381.813	28.99
382.028	43.03
382.244	36.87
382.46	44.55
382.676	6.73
382.891	-18.11
383.107	81.55
383.323	-21.85
383.538	-59.53
383.754	6.57
383.969	73.09
384.185	30.53
384.4	9.42
384.616	29.29
384.831	82.5
385.047	-14.07
385.262	36.42
385.478	4.42
385.693	75.94
385.909	-1.92
386.124	-14.31
386.339	21.2
386.554	19.81
386.77	28.56
386.985	-12.39
387.2	13.12
387.415	62.26
387.631	28.71
387.846	11.54
388.061	62.51
388.276	17.35
388.491	-1.96
388.706	15.11
388.921	33.85
389.136	-17.43
389.351	30.34
389.566	-15.32
389.781	27.93
389.996	50.7
390.211	24.41
390.426	24.6
390.641	49.92
390.855	0.08
391.07	33.92
391.285	-33.58
391.5	5.88
391.714	34.27
391.929	17.21
392.144	29.21
392.358	-9.41
392.573	21.2
392.788	11.83
393.002	15.21
393.217	35.09
393.431	4.42
393.646	10.42
393.86	19.03
394.075	-6.35
394.289	-12.3
394.504	2.7
394.718	6.89
394.933	-13.42
395.147	9.83
395.361	19.14
395.576	24.42
395.79	1.75
396.004	11.93
396.218	-2.2
396.432	15.49
396.647	-6.21
396.861	3.03
397.075	21.6
397.289	7.44
397.503	13.7
397.717	22.79
397.931	14.19
398.145	14.09
398.359	3.54
398.573	-1.27
398.787	11.85
399.001	16.85
399.215	9.78
399.429	3.14
399.643	-1.6
399.857	11.67
400.07	12.47
400.284	14.25
400.498	3.62
400.712	18.21
400.925	15.06
401.139	-4.63
401.353	11.34
401.566	9.31
401.78	19.57
401.994	-2.03
402.207	7.29
402.421	8.84
402.634	6.78
402.848	6.7
403.061	3.15
403.275	10.47
403.488	1.28
403.702	2.81
403.915	8.29
404.128	0.22
404.342	-3.51
404.555	-3.24
404.768	9.5
404.982	9.58
405.195	-2.07
405.408	1.17
405.621	2.52
405.835	3.13
406.048	-0.37
406.261	6.37
406.474	1.31
406.687	0.55
406.9	8.21
407.113	6.41
407.326	6.77
407.539	9.39
407.752	3.09
407.965	6.19
408.178	6.21
408.391	3.44
408.604	5.68
408.817	0.16
409.029	8.19
409.242	-0.81
409.455	-1.29
409.668	0.66
409.881	7.12
410.093	4.22
410.306	2.77
410.519	-0.34
410.731	0.87
410.944	0.35
411.157	5.15
411.369	-0.32
411.582	2.19
411.794	-1.58
412.007	1.91
412.219	8.21
412.432	6.32
412.644	1.76
412.857	4.43
413.069	3.03
413.281	7.78
413.494	4.33
413.706	4.58
413.918	3.48
414.131	3.86
414.343	0.54
414.555	7.38
414.767	5.75
414.979	3.03
415.192	3.43
415.404	1.67
415.616	3.13
415.828	1.76
416.04	1.82
416.252	2.08
416.464	-0.07
416.676	5.87
416.888	2.94
417.1	-0.08
417.312	3.53
417.524	3.48
417.736	0.01
417.948	0.01
418.159	5.39
418.371	4.54
418.583	1.14
418.795	1.65
419.007	3.18
419.218	1.43
419.43	4.41
419.642	-0.29
419.853	3.03
420.065	2.29
420.276	1.32
420.488	2.95
420.7	2.74
420.911	4.18
421.123	3.67
421.334	2.79
421.546	0.59
421.757	1.87
421.969	2.89
422.18	1.7
422.391	2.03
422.603	0.85
422.814	2.46
423.025	3.84
423.237	2.26
423.448	2.45
423.659	2.6
423.87	1.33
424.082	2.79
424.293	4.6
424.504	5.4
424.715	3.56
424.926	1.85
425.137	1.17
425.348	4.57
425.559	3.68
425.77	4.76
425.981	2.9
426.192	4.02
426.403	1.73
426.614	-1.06
426.825	2.24
427.036	3.88
427.247	-0.48
427.458	4.07
427.668	0.3
427.879	2.39
428.09	4.38
428.301	0.87
428.511	-1.15
428.722	-0.78
428.933	1.5
429.143	1.36
429.354	2.36
429.565	1.45
429.775	2.48
429.986	0.64
430.196	1.73
430.407	0.54
430.617	0.85
430.828	-0.59
431.038	2.42
431.249	-0.23
431.459	1.59
431.669	3.9
431.88	2.6
432.09	4.23
432.3	3.85
432.511	2.52
432.721	3.18
432.931	2.04
433.141	-0.06
433.351	2.49
433.562	1.84
433.772	4.97
433.982	2.98
434.192	4.1
434.402	1.97
434.612	2.24
434.822	1.72
435.032	3.67
435.242	1.92
435.452	2.11
435.662	0.88
435.872	3.45
436.082	4.26
436.292	3.06
436.502	1.31
436.711	2.43
436.921	3.29
437.131	3.87
437.341	-0.38
437.551	5.56
437.76	3.5
437.97	1.6
438.18	1.78
438.389	5.09
438.599	2.44
438.808	2.76
439.018	3.6
439.228	2.76
439.437	2.02
439.647	1
439.856	3.89
440.066	0.91
440.275	3.54
440.484	5.04
440.694	3.62
440.903	4.27
441.113	3.29
441.322	4.95
441.531	2.17
441.741	2.07
441.95	4.53
442.159	2
442.368	1.98
442.577	1.94
442.787	5.77
442.996	3.08
443.205	-0.64
443.414	3.28
443.623	4.08
443.832	1.45
444.041	1.23
444.25	6.32
444.459	4.39
444.668	3.47
444.877	3.79
445.086	4.23
445.295	3.14
445.504	5.69
445.713	3.12
445.922	3.01
446.13	3.59
446.339	1.28
446.548	0.57
446.757	4.29
446.965	0.81
447.174	2.5
447.383	4.33
447.591	-0.8
447.8	0.87
448.009	2.51
448.217	5.23
448.426	5.51
448.634	4.32
448.843	2.13
449.051	2.72
449.26	4.81
449.468	3.04
449.677	4.83
449.885	2.19
450.093	4.17
450.302	2.36
450.51	4.53
450.719	2.89
450.927	2.65
451.135	-0.53
451.343	1.95
451.552	4.52
451.76	5.67
451.968	6.54
452.176	1.88
452.384	3.27
452.592	1.45
452.8	6.49
453.009	3.56
453.217	4.91
453.425	2.82
453.633	3.93
453.841	4.87
454.049	3.97
454.257	3.07
454.464	5.78
454.672	6.63
454.88	3.46
455.088	2.7
455.296	2.13
455.504	6.1
455.711	5.02
455.919	5.12
456.127	3.29
456.335	7.08
456.542	4.35
456.75	3.34
456.958	3.47
457.165	4.14
457.373	4.71
457.581	5.02
457.788	0.47
457.996	6.05
458.203	4.9
458.411	7.26
458.618	5.78
458.826	5.75
459.033	6.19
459.24	5.13
459.448	4.49
459.655	5.96
459.863	5.54
460.07	5.48
460.277	4.89
460.484	8.1
460.692	8.32
460.899	3.49
461.106	5.2
461.313	6.39
461.52	4.61
461.728	5.86
461.935	7.3
462.142	7.55
462.349	8.88
462.556	7.27
462.763	7.75
462.97	8.08
463.177	10.08
463.384	6.2
463.591	6.75
463.798	7.48
464.005	5.87
464.212	8.11
464.418	7.85
464.625	7.91
464.832	7.05
465.039	6.35
465.246	8.34
465.452	9.75
465.659	10.72
465.866	6.65
466.072	6.62
466.279	8.87
466.486	8.54
466.692	11.23
466.899	10.19
467.105	7.68
467.312	6.02
467.519	10.07
467.725	10.13
467.931	9.92
468.138	6.29
468.344	8.19
468.551	9.19
468.757	9.56
468.964	13.25
469.17	10.61
469.376	8.61
469.583	10.71
469.789	13.96
469.995	10.34
470.201	14.21
470.408	12.68
470.614	11.31
470.82	10.65
471.026	9.04
471.232	9.45
471.438	11.75
471.644	12.9
471.85	14.43
472.056	13.59
472.262	14.04
472.468	12.09
472.674	13.89
472.88	14.81
473.086	12.08
473.292	13.3
473.498	13.86
473.704	12.99
473.91	14.85
474.116	13.78
474.321	13.65
474.527	12.4
474.733	14.53
474.939	16.46
475.144	17.48
475.35	14.27
475.556	13.07
475.761	13.63
475.967	15.64
476.173	16.76
476.378	17.86
476.584	15.05
476.789	15.52
476.995	16.78
477.2	15.49
477.406	16.89
477.611	15.99
477.817	15.1
478.022	15.28
478.227	16.59
478.433	16.31
478.638	15.72
478.843	18.93
479.049	15.29
479.254	16.4
479.459	14.84
479.664	16.06
479.87	16.61
480.075	15.9
480.28	15.83
480.485	16.76
480.69	16.51
480.895	14.25
481.1	15.37
481.306	16.69
481.511	17
481.716	15.66
481.921	14.97
482.126	14.97
482.33	14.74
482.535	15.13
482.74	13.87
482.945	16.01
483.15	15.15
483.355	15.08
483.56	12.69
483.765	11.74
483.969	12.87
484.174	15.27
484.379	12.96
484.583	13.32
484.788	12.79
484.993	13.21
485.197	12.98
485.402	11.79
485.607	12.41
485.811	11.05
486.016	13.13
486.22	12.18
486.425	11.52
486.629	12.18
486.834	11.62
487.038	12.62
487.243	11.23
487.447	11.13
487.652	10.55
487.856	11.01
488.06	10.66
488.265	10.86
488.469	9.76
488.673	9.58
488.877	9.45
489.082	10.25
489.286	8.99
489.49	9.07
489.694	8.25
489.898	9.46
490.102	8.44
490.307	8.08
490.511	7.22
490.715	8.17
490.919	8.09
491.123	7.88
491.327	8.26
491.531	6.81
491.735	8.21
491.939	7.25
492.143	6.7
492.346	8.12
492.55	7.11
492.754	6.26
492.958	8
493.162	6.21
493.366	5.29
493.569	6.87
493.773	6.46
493.977	6.09
494.18	5.82
494.384	6.18
494.588	7.14
494.791	5.48
494.995	6.47
495.199	5.82
495.402	5.99
495.606	4.81
495.809	5.71
496.013	4.14
496.216	5.44
496.42	4.62
496.623	4.19
496.827	5.43
497.03	5.73
497.233	5.12
497.437	3.88
497.64	4.74
497.843	4.16
498.047	4.54
498.25	4.62
498.453	5.69
498.656	4.15
498.86	5.36
499.063	4.19
499.266	4.12
499.469	3.96
499.672	4.54
499.875	4.27
500.078	2.99
500.281	3.95
500.484	4.02
500.687	4.12
500.89	3.64
501.093	3.71
501.296	4.25
501.499	3.09
501.702	5.77
501.905	4.01
502.108	4.04
502.311	3.37
502.514	3.38
502.716	3.94
502.919	4.24
503.122	2.65
503.325	3.96
503.527	3.11
503.73	3.68
503.933	2.9
504.135	3.73
504.338	3.95
504.541	3.37
504.743	4.25
504.946	3.38
505.148	2.95
505.351	3.06
505.553	3
505.756	2.83
505.958	3.88
506.161	2.79
506.363	3.1
506.565	2.86
506.768	3.14
506.97	2.94
507.172	2.42
507.375	2.94
507.577	2.31
507.779	3.86
507.982	2.94
508.184	2.53
508.386	2.89
508.588	2.16
508.79	2.64
508.993	3.44
509.195	3.19
509.397	3.44
509.599	2.48
509.801	1.43
510.003	2.84
510.205	2.64
510.407	3
510.609	3.25
510.811	1.76
511.013	2.59
511.215	2.87
511.417	2.13
511.618	2.26
511.82	2.85
512.022	2.56
512.224	2.33
512.426	2.18
512.627	2.64
512.829	2.19
513.031	2.32
513.233	2.61
513.434	2.04
513.636	1.58
513.838	2.64
514.039	2.5
514.241	2.58
514.442	2.58
514.644	2.03
514.845	2.42
515.047	2.58
515.248	1.99
515.45	1.74
515.651	2
515.853	2.23
516.054	1.8
516.256	1.81
516.457	2.73
516.658	2.48
516.86	2.04
517.061	1.87
517.262	1.64
517.463	2.05
517.665	3.01
517.866	2.56
518.067	1.92
518.268	2.43
518.469	1.76
518.67	1.74
518.872	1.94
519.073	1.53
519.274	1.89
519.475	2.33
519.676	1.45
519.877	1.99
520.078	2.52
520.279	2.32
520.48	2.07
520.681	1.81
520.881	2.06
521.082	2.03
521.283	1.99
521.484	2.03
521.685	1.88
521.886	1.86
522.086	1.79
522.287	1.51
522.488	2.32
522.689	1.94
522.889	2.08
523.09	1.8
523.291	1.81
523.491	1.87
523.692	1.57
523.892	1.95
524.093	1.79
524.294	2.11
524.494	1.56
524.695	1.44
524.895	2.13
525.096	1.69
525.296	2.43
525.496	2.12
525.697	2.25
525.897	1.47
526.098	2.19
526.298	1.73
526.498	2.14
526.699	1.73
526.899	1.92
527.099	1.59
527.299	1.96
527.499	2.28
527.7	1.71
527.9	2.19
528.1	2.26
528.3	2.07
528.5	1.93
528.7	1.76
528.9	2
529.1	1.54
529.3	1.85
529.5	1.7
529.7	1.73
529.9	1.73
530.1	1.45
530.3	1.56
530.5	2
530.7	2.09
530.9	1.96
531.1	1.79
531.3	1.93
531.499	1.59
531.699	1.93
531.899	1.45
532.099	1.4
532.298	1.81
532.498	2.06
532.698	1.86
532.897	1.49
533.097	1.55
533.297	2
533.496	1.84
533.696	1.83
533.895	1.9
534.095	2.03
534.294	1.84
534.494	1.57
534.693	1.62
534.893	1.59
535.092	1.54
535.292	1.74
535.491	1.6
535.69	1.36
535.89	1.36
536.089	1.85
536.288	1.23
536.488	1.41
536.687	1.91
536.886	1.69
537.085	1.73
537.285	1.77
537.484	1.97
537.683	1.95
537.882	1.4
538.081	1.96
538.28	1.79
538.479	1.55
538.678	1.51
538.877	1.7
539.076	1.72
539.275	1.63
539.474	1.38
539.673	1.65
539.872	1.62
540.071	1.75
540.27	2.07
540.469	2.28
540.668	1.61
540.867	1.68
541.065	1.79
541.264	1.56
541.463	1.54
541.662	1.46
541.861	1.72
542.059	1.91
542.258	1.7
542.457	2.28
542.655	1.34
542.854	1.77
543.052	1.82
543.251	1.51
543.45	1.94
543.648	1.79
543.847	1.65
544.045	1.36
544.244	1.46
544.442	1.71
544.641	1.68
544.839	1.7
545.037	1.87
545.236	1.7
545.434	1.92
545.632	1.87
545.831	2.21
546.029	1.56
546.227	1.73
546.426	1.66
546.624	1.3
546.822	1.37
547.02	1.54
547.218	1.53
547.417	1.66
547.615	1.91
547.813	1.74
548.011	2.11
548.209	1.94
548.407	2.03
548.605	1.63
548.803	1.76
549.001	1.88
549.199	1.64
549.397	1.98
549.595	1.89
549.793	2.15
549.991	1.73
550.189	2.15
550.387	1.91
550.584	2.02
550.782	1.63
550.98	1.85
551.178	1.86
551.376	1.69
551.573	1.61
551.771	1.91
551.969	2.2
552.166	1.58
552.364	1.81
552.562	1.45
552.759	1.97
552.957	1.74
553.154	1.64
553.352	1.59
553.55	1.77
553.747	1.61
553.945	1.57
554.142	1.79
554.339	1.89
554.537	2.03
554.734	2.09
554.932	1.67
555.129	1.77
555.326	1.78
555.524	1.67
555.721	1.96
555.918	1.91
556.116	1.52
556.313	2.26
556.51	1.55
556.707	1.89
556.904	1.92
557.102	1.6
557.299	1.88
557.496	1.93
557.693	2.26
557.89	2.06
558.087	2.01
558.284	1.6
558.481	1.95
558.678	1.91
558.875	1.71
559.072	1.81
559.269	1.8
559.466	1.64
559.663	1.81
559.86	1.94
560.057	1.96
560.254	1.84
560.45	2.02
560.647	1.91
560.844	1.77
561.041	2.21
561.237	1.67
561.434	1.97
561.631	2.22
561.828	1.87
562.024	1.73
562.221	1.93
562.418	2.2
562.614	1.88
562.811	2.21
563.007	2.33
563.204	2.45
563.4	2.16
563.597	1.98
563.793	1.94
563.99	2.15
564.186	2.1
564.383	2.17
564.579	2.43
564.775	2.22
564.972	2.2
565.168	2.24
565.365	2.34
565.561	2.12
565.757	2.02
565.953	2.07
566.15	2.33
566.346	2.26
566.542	2.17
566.738	2.28
566.934	2.53
567.131	2.15
567.327	2.38
567.523	2.04
567.719	2.04
567.915	2.52
568.111	2.28
568.307	2.67
568.503	2.28
568.699	2.07
568.895	2.21
569.091	2.56
569.287	2.52
569.483	2.1
569.679	2.63
569.875	2.38
570.07	2.22
570.266	2.52
570.462	2.5
570.658	2.43
570.854	2.41
571.049	2.22
571.245	2.52
571.441	2.71
571.636	2.12
571.832	2.29
572.028	2.56
572.223	2.35
572.419	2.47
572.615	2.41
572.81	2.49
573.006	2.58
573.201	2.85
573.397	2.55
573.592	2.51
573.788	2.18
573.983	2.56
574.179	2.71
574.374	2.63
574.569	2.64
574.765	2.7
574.96	2.54
575.156	2.74
575.351	2.42
575.546	2.46
575.741	2.91
575.937	2.98
576.132	2.97
576.327	2.77
576.522	2.46
576.718	2.55
576.913	2.67
577.108	2.79
577.303	2.85
577.498	2.63
577.693	3.06
577.888	2.85
578.083	2.96
578.278	2.65
578.473	2.95
578.668	2.93
578.863	2.57
579.058	2.93
579.253	2.89
579.448	2.76
579.643	3
579.838	2.9
580.033	2.87
580.227	2.95
580.422	3.09
580.617	2.95
580.812	3.17
581.006	2.88
581.201	3.3
581.396	2.93
581.591	3.22
581.785	3.34
581.98	3.02
582.175	3.08
582.369	3.51
582.564	3.02
582.758	3.29
582.953	3.33
583.147	3.04
583.342	3.12
583.536	3.38
583.731	3.36
583.925	3.25
584.12	3.69
584.314	3.3
584.509	3.35
584.703	3.46
584.897	3.31
585.092	3.56
585.286	3.97
585.48	3.29
585.674	3.51
585.869	3.43
586.063	3.43
586.257	3.66
586.451	3.5
586.646	3.42
586.84	3.35
587.034	3.36
587.228	3.54
587.422	3.56
587.616	3.71
587.81	3.68
588.004	3.55
588.198	3.64
588.392	3.84
588.586	3.83
588.78	4.02
588.974	3.46
589.168	3.91
589.362	4.12
589.556	3.86
589.75	3.91
589.944	4.29
590.137	4.02
590.331	3.97
590.525	4.24
590.719	4.29
590.913	4.31
591.106	4.23
591.3	4.35
591.494	4.37
591.687	4.4
591.881	4.31
592.075	4.45
592.268	4.26
592.462	4.18
592.655	4.37
592.849	4.29
593.043	4.67
593.236	3.95
593.43	4.17
593.623	4.23
593.817	4.57
594.01	4.11
594.203	4.66
594.397	4.48
594.59	4.67
594.784	4.58
594.977	4.78
595.17	4.68
595.364	4.42
595.557	4.44
595.75	4.68
595.943	4.66
596.137	4.82
596.33	4.74
596.523	5.02
596.716	4.84
596.909	4.81
597.102	5.35
597.296	5.41
597.489	5.05
597.682	4.69
597.875	4.89
598.068	5.12
598.261	5.11
598.454	4.9
598.647	5.21
598.84	4.86
599.033	5.3
599.226	5.19
599.419	4.95
599.611	5.34
599.804	5.4
599.997	5.37
600.19	5.37
600.383	5.43
600.576	5.59
600.768	5.14
600.961	5.26
601.154	5.46
601.347	5.84
601.539	5.85
601.732	5.97
601.925	5.9
602.117	6.11
602.31	5.95
602.502	5.95
602.695	5.83
602.888	6.11
603.08	5.9
603.273	6.02
603.465	6.27
603.658	6.14
603.85	6.14
604.043	6.15
604.235	6.12
604.427	6.08
604.62	5.83
604.812	5.93
605.004	6.31
605.197	5.94
605.389	5.97
605.581	6.45
605.774	6.27
605.966	6.44
606.158	6.49
606.35	6.64
606.543	6.67
606.735	6.85
606.927	6.8
607.119	7.16
607.311	6.95
607.503	6.77
607.695	6.84
607.887	7.17
608.079	7.04
608.271	7.28
608.463	6.93
608.655	7.39
608.847	7.26
609.039	7.39
609.231	7.38
609.423	7.4
609.615	7.49
609.807	7.29
609.999	7.7
610.191	7.42
610.382	7.76
610.574	7.96
610.766	7.67
610.958	7.6
611.15	7.76
611.341	7.76
611.533	7.74
611.725	7.88
611.916	8.22
612.108	8.41
612.3	8.03
612.491	7.81
612.683	7.94
612.874	8.51
613.066	8.3
613.257	8.43
613.449	8.29
613.64	8.31
613.832	8.4
614.023	8.41
614.215	8.73
614.406	8.7
614.598	8.69
614.789	8.97
614.98	9.26
615.172	8.64
615.363	9.08
615.554	8.73
615.746	8.77
615.937	8.95
616.128	8.9
616.319	8.9
616.511	9.02
616.702	9.22
616.893	9.42
617.084	9.4
617.275	9.35
617.466	9.44
617.658	9.42
617.849	9.68
618.04	9.53
618.231	9.67
618.422	9.58
618.613	9.99
618.804	9.87
618.995	10.32
619.186	10.43
619.377	10.13
619.568	10.02
619.758	10.37
619.949	10.26
620.14	9.77
620.331	10.06
620.522	10.25
620.713	10.35
620.903	10.35
621.094	10.78
621.285	10.27
621.476	10.65
621.666	11.03
621.857	10.81
622.048	10.82
622.238	11.2
622.429	11.71
622.62	11.87
622.81	11.7
623.001	12.05
623.191	11.81
623.382	11.6
623.572	11.72
623.763	11.5
623.953	11.78
624.144	11.32
624.334	11.85
624.525	12.02
624.715	12.2
624.905	12.35
625.096	12.18
625.286	12.36
625.477	12.21
625.667	12.71
625.857	12.08
626.047	12.52
626.238	12.2
626.428	12.53
626.618	12.52
626.808	12.62
626.999	12.61
627.189	12.78
627.379	12.72
627.569	13.01
627.759	13.11
627.949	13.41
628.139	12.8
628.329	13.42
628.519	13.15
628.709	13.17
628.899	13.16
629.089	12.83
629.279	12.78
629.469	12.71
629.659	13.06
629.849	13.44
630.039	13.39
630.229	13.67
630.419	13.74
630.609	13.57
630.798	13.75
630.988	13.75
631.178	13.33
631.368	13.75
631.557	14.17
631.747	14.07
631.937	14.25
632.127	14.42
632.316	14.44
632.506	14.44
632.696	14.46
632.885	14.6
633.075	14.6
633.264	14.54
633.454	14.64
633.643	14.76
633.833	14.5
634.022	14.89
634.212	14.95
634.401	14.61
634.591	14.47
634.78	15.17
634.97	15.42
635.159	15.15
635.348	15.07
635.538	14.95
635.727	15.11
635.916	14.45
636.106	15.33
636.295	15.31
636.484	15.02
636.674	15.08
636.863	15.18
637.052	15.1
637.241	14.87
637.43	15.26
637.619	15.21
637.809	15.34
637.998	15.63
638.187	15.85
638.376	15.98
638.565	16.12
638.754	16.18
638.943	15.95
639.132	16.25
639.321	16.04
639.51	15.3
639.699	15.32
639.888	15.46
640.077	15.21
640.266	15.11
640.455	15.49
640.643	15.77
640.832	15.6
641.021	15.59
641.21	15.61
641.399	15.9
641.587	16.28
641.776	16.25
641.965	16.18
642.154	16.12
642.342	16.37
642.531	16.54
642.72	16.77
642.908	16.58
643.097	16.71
643.286	16.95
643.474	16.91
643.663	16.56
643.851	16.39
644.04	16.52
644.228	16.43
644.417	16.07
644.605	16.52
644.794	16.12
644.982	16.51
645.171	16.59
645.359	16.56
645.547	17.25
645.736	16.4
645.924	16.59
646.112	16.59
646.301	15.96
646.489	16.47
646.677	16.1
646.866	16.06
647.054	16.56
647.242	16.86
647.43	17.02
647.618	17.39
647.807	17.14
647.995	17.28
648.183	16.97
648.371	16.39
648.559	16.63
648.747	16.84
648.935	17.1
649.123	17.22
649.311	17.29
649.499	17.61
649.687	17.45
649.875	16.55
650.063	17.36
650.251	17.18
650.439	17.26
650.627	16.93
650.815	16.84
651.003	16.98
651.191	16.72
651.378	17.26
651.566	16.97
651.754	16.5
651.942	16.95
652.13	17.29
652.317	17.43
652.505	17.75
652.693	17.4
652.88	17.32
653.068	16.99
653.256	17.49
653.443	16.93
653.631	17.45
653.819	17.22
654.006	17.49
654.194	17.38
654.381	17.05
654.569	16.96
654.756	17.04
654.944	16.72
655.131	17
655.319	17.82
655.506	17
655.693	17.18
655.881	17.44
656.068	17.29
656.256	18.1
656.443	17.83
656.63	17.21
656.818	17.86
657.005	17.18
657.192	17.69
657.379	16.98
657.567	17.49
657.754	17.22
657.941	16.69
658.128	16.99
658.315	17.2
658.502	16.89
658.69	17.08
658.877	17.48
659.064	17.17
659.251	17.9
659.438	17.71
659.625	17.36
659.812	17.49
659.999	17.24
660.186	17.2
660.373	17.48
660.56	17.34
660.747	17.21
660.934	17.49
661.121	17.27
661.308	17.06
661.494	17.11
661.681	17.06
661.868	17.54
662.055	17.2
662.242	16.94
662.428	17.83
662.615	17.64
662.802	17.85
662.989	17.69
663.175	18.3
663.362	18.6
663.549	18.35
663.735	18.38
663.922	18.33
664.109	18.09
664.295	17.85
664.482	18.27
664.668	17.67
664.855	17.35
665.041	17.17
665.228	17.12
665.414	18.01
665.601	18.11
665.787	17.52
665.974	17.47
666.16	17.5
666.347	17.23
666.533	17.78
666.719	17.44
666.906	17.01
667.092	17.05
667.278	16.85
667.465	17.03
667.651	17.51
667.837	17.39
668.023	17.41
668.21	16.92
668.396	16.76
668.582	16.88
668.768	16.67
668.954	17.04
669.14	16.97
669.327	17.67
669.513	17.65
669.699	17.42
669.885	17.46
670.071	17.56
670.257	17.53
670.443	17.48
670.629	17.54
670.815	17.29
671.001	17.44
671.187	16.9
671.373	17.26
671.559	17.26
671.744	17.32
671.93	17.53
672.116	17.89
672.302	18.11
672.488	17.8
672.674	17.78
672.859	18.15
673.045	17.93
673.231	17.46
673.417	17.27
673.602	17.27
673.788	17.3
673.974	17.25
674.159	16.97
674.345	17.27
674.531	17.57
674.716	17.16
674.902	17.3
675.087	17.31
675.273	17.48
675.459	17.89
675.644	17.35
675.83	17.32
676.015	17.45
676.2	17.15
676.386	17.22
676.571	17.23
676.757	16.74
676.942	16.77
677.128	16.8
677.313	16.83
677.498	16.62
677.684	16.45
677.869	17.44
678.054	17.63
678.24	17.61
678.425	17.23
678.61	17.28
678.795	17.78
678.98	17.71
679.166	17.65
679.351	17.33
679.536	16.93
679.721	17.26
679.906	17.09
680.091	16.85
680.276	17.32
680.461	17.29
680.647	17.34
680.832	17.54
681.017	17.29
681.202	17.55
681.387	16.99
681.572	17.15
681.756	16.99
681.941	16.89
682.126	17.43
682.311	16.87
682.496	17.05
682.681	17.55
682.866	16.7
683.051	16.96
683.235	16.55
683.42	17.49
683.605	17.57
683.79	17.32
683.974	17.07
684.159	17.06
684.344	17.24
684.529	17.4
684.713	17.19
684.898	17.17
685.083	16.97
685.267	17.31
685.452	17.03
685.636	17.27
685.821	17.53
686.005	17.35
686.19	17.07
686.375	17.52
686.559	17.29
686.744	16.51
686.928	16.73
687.112	16.62
687.297	16.39
687.481	16.36
687.666	16.03
687.85	16.58
688.034	16.46
688.219	16.27
688.403	16.56
688.587	16.33
688.772	16.55
688.956	16.22
689.14	16.68
689.324	16.92
689.509	16.59
689.693	16.13
689.877	16.23
690.061	16.35
690.245	16.44
690.43	16.25
690.614	16.5
690.798	16.3
690.982	16.03
691.166	15.98
691.35	15.84
691.534	16.28
691.718	16.41
691.902	15.95
692.086	16.06
692.27	16.04
692.454	16.25
692.638	16.37
692.822	16.51
693.006	16.88
693.19	16.85
693.373	16.55
693.557	17.06
693.741	16.41
693.925	16.4
694.109	16.46
694.293	16.29
694.476	16.5
694.66	16.96
694.844	16.68
695.027	16.66
695.211	16.43
695.395	16.69
695.578	16.56
695.762	16.42
695.946	16.17
696.129	16.25
696.313	16.23
696.497	16.45
696.68	16.54
696.864	16.44
697.047	16.35
697.231	16.26
697.414	16.37
697.598	15.83
697.781	15.5
697.965	15.4
698.148	15.6
698.331	15.5
698.515	16.02
698.698	15.76
698.881	16.03
699.065	15.93
699.248	16.42
699.431	16.06
699.615	15.88
699.798	16.15
699.981	16.21
700.165	16.15
700.348	16.04
700.531	15.97
700.714	15.67
700.897	15.69
701.08	15.72
701.264	15.75
701.447	15.68
701.63	15.45
701.813	15.85
701.996	16.2
702.179	15.55
702.362	16.06
702.545	16
702.728	15.74
702.911	16.37
703.094	16.15
703.277	16.31
703.46	17
703.643	16.21
703.826	16.53
704.009	15.69
704.191	16.2
704.374	16.41
704.557	16.08
704.74	15.53
704.923	15.86
705.106	15.22
705.288	14.98
705.471	15.32
705.654	14.9
705.837	15.3
706.019	15.75
706.202	15.68
706.385	15.44
706.567	15.49
706.75	15.26
706.932	15.38
707.115	15.52
707.298	15.28
707.48	15.32
707.663	14.6
707.845	15.29
708.028	15.76
708.21	15.45
708.393	15.6
708.575	15.96
708.758	15.66
708.94	16.18
709.123	15.99
709.305	16.17
709.487	15.92
709.67	16.24
709.852	15.63
710.034	15.74
710.217	15.27
710.399	15.29
710.581	15.75
710.764	15.61
710.946	15.68
711.128	15.44
711.31	14.98
711.492	14.8
711.675	15.08
711.857	15.28
712.039	15.33
712.221	15.45
712.403	15.31
712.585	15.51
712.767	15.23
712.949	15.34
713.131	15.69
713.314	15.69
713.496	15.72
713.678	15.23
713.86	15.64
714.041	15.53
714.223	15.12
714.405	15.7
714.587	15.01
714.769	14.81
714.951	15.28
715.133	15.7
715.315	15.87
715.497	15.74
715.678	15.87
715.86	15.65
716.042	15.5
716.224	15.38
716.406	15.8
716.587	16.3
716.769	15.32
716.951	14.82
717.132	15.12
717.314	15.5
717.496	14.99
717.677	15.32
717.859	15.52
718.041	15.05
718.222	14.69
718.404	14.85
718.585	15.18
718.767	15.5
718.948	15.3
719.13	15.05
719.311	15.86
719.493	15.79
719.674	15.46
719.856	14.96
720.037	15.18
720.219	15.11
720.4	15.43
720.581	15.11
720.763	15.57
720.944	15.32
721.125	15.26
721.307	15.46
721.488	15.38
721.669	15.45
721.85	15.31
722.032	14.94
722.213	15.42
722.394	15.35
722.575	15.14
722.756	15.1
722.938	14.79
723.119	14.95
723.3	14.73
723.481	14.97
723.662	15.15
723.843	14.55
724.024	14.95
724.205	15.57
724.386	15.05
724.567	15.11
724.748	15.32
724.929	15.35
725.11	15.33
725.291	15.98
725.472	15.68
725.653	15.54
725.834	15.82
726.015	15.67
726.196	15.02
726.377	14.97
726.557	15.1
726.738	15.41
726.919	15.65
727.1	15.04
727.281	15.14
727.461	15.16
727.642	15.17
727.823	14.91
728.004	15.85
728.184	15.78
728.365	15.05
728.546	14.89
728.726	15.02
728.907	14.99
729.087	14.68
729.268	15.05
729.449	14.96
729.629	14.72
729.81	15.28
729.99	14.5
730.171	14.43
730.351	14.53
730.532	14.52
730.712	14.32
730.893	14.41
731.073	14.19
731.253	13.9
731.434	14.25
731.614	14.47
731.795	14.39
731.975	14.36
732.155	14.4
732.336	14.93
732.516	14.18
732.696	14.79
732.876	14.36
733.057	14.71
733.237	13.63
733.417	14.03
733.597	14.06
733.778	14.5
733.958	14.04
734.138	14.17
734.318	13.91
734.498	14.01
734.678	14.06
734.858	14.6
735.038	14.09
735.218	14.63
735.398	14.73
735.579	14.73
735.759	14.94
735.939	14.75
736.119	14.52
736.298	15.5
736.478	15.04
736.658	14.14
736.838	14.87
737.018	14.56
737.198	14.3
737.378	14.5
737.558	14.92
737.738	15.61
737.917	14.66
738.097	14.85
738.277	14.76
738.457	14.69
738.637	13.96
738.816	14.45
738.996	14.13
739.176	14.69
739.355	14.45
739.535	14.62
739.715	14.05
739.894	14.05
740.074	13.66
740.254	13.78
740.433	14.49
740.613	13.71
740.792	13.97
740.972	14.18
741.151	13.93
741.331	13.67
741.51	14.02
741.69	14.43
741.869	14.56
742.049	14.48
742.228	14.71
742.408	14.8
742.587	15.12
742.766	14.65
742.946	15.25
743.125	14.64
743.305	14.61
743.484	14.26
743.663	14.4
743.842	13.9
744.022	14.12
744.201	14.25
744.38	14.42
744.56	14.16
744.739	14.32
744.918	14.21
745.097	14.29
745.276	13.89
745.455	13.91
745.635	14.12
745.814	14.18
745.993	14.56
746.172	14.13
746.351	14.33
746.53	14.45
746.709	14.01
746.888	13.49
747.067	14.18
747.246	13.86
747.425	14.13
747.604	14.56
747.783	14.26
747.962	13.84
748.141	14.75
748.32	13.82
748.499	14.38
748.677	14.08
748.856	13.86
749.035	14.8
749.214	14.87
749.393	14.23
749.572	13.61
749.75	13.89
749.929	14.33
750.108	13.91
750.287	14.3
750.465	14.21
750.644	14.61
750.823	13.92
751.001	14.12
751.18	14.07
751.359	13.96
751.537	13.33
751.716	13.61
751.894	12.82
752.073	13.22
752.251	13.95
752.43	14
752.609	14.74
752.787	14.1
752.966	14.13
753.144	13.44
753.322	12.97
753.501	13.04
753.679	13.19
753.858	13.1
754.036	12.23
754.215	12.48
754.393	12.25
754.571	12.61
754.75	13.13
754.928	12.98
755.106	13.76
755.284	13.56
755.463	13.97
755.641	13.5
755.819	13.42
755.997	14.1
756.176	14
756.354	13.58
756.532	13.96
756.71	14.12
756.888	13.87
757.066	13.46
757.245	13.59
757.423	12.49
757.601	12.75
757.779	12.85
757.957	12.7
758.135	13.51
758.313	13.43
758.491	12.92
758.669	12.94
758.847	13.31
759.025	13.07
759.203	12.94
759.381	13.37
759.559	12.55
759.737	13.09
759.915	13.08
760.092	12.92
760.27	13.48
760.448	13.16
760.626	13.21
760.804	13.21
760.981	12.6
761.159	13.02
761.337	13.21
761.515	12.59
761.692	13.19
761.87	13.22
762.048	12.66
762.226	13.12
762.403	12.85
762.581	13.15
762.759	13.11
762.936	13.54
763.114	13.83
763.291	13.33
763.469	12.82
763.647	13.03
763.824	13.3
764.002	13.4
764.179	13.64
764.357	13.45
764.534	12.55
764.712	12.6
764.889	12.73
765.066	13.05
765.244	12.06
765.421	12.91
765.599	12.28
765.776	12.33
765.953	12.35
766.131	12.84
766.308	12.04
766.485	12.88
766.663	12.25
766.84	12.53
767.017	12.78
767.194	12.03
767.372	12.75
767.549	12.07
767.726	12.96
767.903	13.25
768.081	12.38
768.258	12.94
768.435	12.61
768.612	12.91
768.789	11.99
768.966	13.11
769.143	13.15
769.32	12.95
769.497	12.61
769.674	12.36
769.851	12.14
770.028	12.18
770.205	13.09
770.382	12.83
770.559	13.15
770.736	12.91
770.913	12.84
771.09	13.16
771.267	12.52
771.444	12.64
771.621	12.13
771.798	12.72
771.975	12.8
772.151	13.5
772.328	12.95
772.505	13.09
772.682	13.6
772.859	13.16
773.035	12.15
773.212	13.14
773.389	12.71
773.565	13.74
773.742	12.07
773.919	12.21
774.096	11.41
774.272	13.22
774.449	10.79
774.625	12.04
774.802	11.44
774.979	12.89
775.155	11.82
775.332	12.56
775.508	12.67
775.685	12.95
775.861	12.42
776.038	12.84
776.214	12.55
776.391	12.72
776.567	12.77
776.744	13.05
776.92	12.04
777.096	12.21
777.273	12.03
777.449	12.21
777.626	11.52
777.802	12.02
777.978	11.97
778.155	11.7
778.331	11.51
778.507	11.2
778.683	10.47
778.86	11.79
779.036	11.84
779.212	11.97
779.388	11.92
779.565	11.27
779.741	12.46
779.917	11.69
780.093	11.19
780.269	11.01
780.445	11.89
780.621	12.33
780.797	11.11
780.974	10.75
781.15	10.91
781.326	12.07
781.502	11.07
781.678	11.05
781.854	12.1
782.03	9.94
782.206	12.3
782.382	10.2
782.558	12.96
782.733	12
782.909	12.49
783.085	12.75
783.261	11.69
783.437	10.42
783.613	11.93
783.789	11.78
783.965	11.45
784.14	10.58
784.316	11.86
784.492	11.32
784.668	11.59
784.843	11.04
785.019	11.93
785.195	9.96
785.371	12.19
785.546	10.48
785.722	10.88
785.898	10
786.073	12.32
786.249	12.29
786.424	11.93
786.6	11.11
786.776	11.81
786.951	10.09
787.127	12.92
787.302	11.35
787.478	11.12
787.653	10.66
787.829	10.73
788.004	11.94
788.18	11.45
788.355	11.58
788.531	10.23
788.706	12.86
788.881	10.46
789.057	11.41
789.232	9.35
789.408	11.89
789.583	10.97
789.758	12.19
789.934	10.65
790.109	11.27
790.284	11.62
790.459	10.99
790.635	10.82
790.81	12.18
790.985	10.64
791.16	12.07
791.336	12.36
791.511	10.6
791.686	11.44
791.861	12.58
792.036	13.77
792.211	11.12
792.387	9.83
792.562	10.04
792.737	10.15
792.912	11.05
793.087	11.16
793.262	9.61
793.437	10.44
793.612	10.94
793.787	10.17
793.962	10.65
794.137	13.03
794.312	10.66
794.487	10.98
794.662	11.47
794.837	9.95
795.011	11.44
795.186	11.88
795.361	10.87
795.536	11.92
795.711	7.42
795.886	11.16
796.06	8.7
796.235	12.48
796.41	10.96
796.585	12.29
796.76	8.81
796.934	9.91
797.109	14.1
797.284	10.33
797.458	11.17
797.633	12.56
797.808	8.56
797.982	11.81
798.157	12.65
798.332	10.21
798.506	10.13
798.681	10.56
798.855	8.99
799.03	12.44
799.204	11.61
799.379	11.22
799.553	11.79
799.728	7.57
799.902	10.93
800.077	10.58
800.251	13.43
800.426	10.95
800.6	9.82
800.775	11.43
800.949	10.65
801.123	13.6
801.298	11.01
801.472	12.26
801.647	10.75
801.821	11.06
801.995	8.7
802.169	11.42
802.344	11.14
802.518	12.56
802.692	7.76
802.867	11.79
803.041	8.22
803.215	10.89
803.389	9.04
803.563	7.77
803.737	8.34
803.912	11
804.086	12.18
804.26	10.34
804.434	11.14
804.608	8.76
804.782	13.59
804.956	11.14
805.13	8.87
805.304	11.35
805.478	12.95
805.652	13.57
805.826	13.12
806	10.29
806.174	13.58
806.348	13.86
806.522	10.75
806.696	10.02
806.87	13.39
807.044	12.06
807.218	11.82
807.392	10.74
807.566	12.11
807.739	13.58
807.913	8.04
808.087	13.14
808.261	11.22
808.435	9.6
808.608	7.15
808.782	8.52
808.956	7.15
809.13	9.86
809.303	11.77
809.477	10.71
809.651	13.49
809.824	8.52
809.998	13.98
810.172	12.09
810.345	10.55
810.519	8.89
810.692	8.84
810.866	13.41
811.04	8.12
811.213	9.58
811.387	8.96
811.56	11.85
811.734	11.98
811.907	11.01
812.081	11.61
812.254	8.2
812.428	8.59
812.601	13.48
812.774	10.69
812.948	9.98
813.121	13.83
813.295	11.82
813.468	8.19
813.641	7.37
813.815	9.64
813.988	11.33
814.161	11.63
814.335	12.47
814.508	10.93
814.681	7.33
814.854	10.03
815.028	12.38
815.201	9.34
815.374	13.22
815.547	9.94
815.72	13.31
815.894	16.67
816.067	9.4
816.24	12.26
816.413	11.58
816.586	12.4
816.759	11.56
816.932	8.36
817.105	13.81
817.278	9.04
817.452	9.44
817.625	10.75
817.798	11.49
817.971	13.38
818.144	13.7
818.317	15.3
818.49	12.61
818.662	10.01
818.835	10.5
819.008	11.26
819.181	14.23
819.354	11.14
819.527	12.22
819.7	8.93
819.873	11.01
820.046	8.9
820.218	10.49
820.391	12.99
820.564	10.58
820.737	8.12
820.909	13.76
821.082	8.02
821.255	10.59
821.428	16.1
821.6	9.07
821.773	11.95
821.946	9.25
822.118	11.32
822.291	13.95
822.464	6.46
822.636	11.11
822.809	9.85
822.982	11.59
823.154	11.26
823.327	11.16
823.499	7.09
823.672	11.42
823.844	4
824.017	10.55
824.189	12.04
824.362	7.87
824.534	8.35
824.707	10.6
824.879	12.83
825.052	8.53
825.224	8.86
825.396	8.43
825.569	11.08
825.741	12.21
825.914	8.83
826.086	12.65
826.258	12.64
826.431	14.17
826.603	12.46
826.775	14.46
826.947	9.04
827.12	12.17
827.292	14.52
827.464	8.56
827.636	11.05
827.809	11.42
827.981	10.79
828.153	9.03
828.325	8.34
828.497	10.7
828.669	10.94
828.842	11.51
829.014	10.03
829.186	11.38
829.358	7.98
829.53	15.31
829.702	10.78
829.874	12.3
830.046	10.75
830.218	12.39
830.39	8.77
830.562	10.72
830.734	10.32
830.906	9.6
831.078	5.77
831.25	9.48
831.422	7.87
831.594	10.52
831.766	12.92
831.937	10.93
832.109	10.61
832.281	16.08
832.453	5.27
832.625	11.15
832.797	10
832.968	13.37
833.14	13.5
833.312	10.12
833.484	11.3
833.655	13.74
833.827	11.19
833.999	10.58
834.171	9.12
834.342	12.25
834.514	10.04
834.686	12.26
834.857	9.82
835.029	5.27
835.2	12.87
835.372	7.63
835.544	7.89
835.715	7.52
835.887	9.93
836.058	6.92
836.23	11.85
836.401	13.27
836.573	10.59
836.744	7.13
836.916	8.53
837.087	8.76
837.259	11.13
837.43	12.58
837.602	10.3
837.773	7.97
837.945	8.78
838.116	9.43
838.287	5.22
838.459	11.03
838.63	3.94
838.801	9.86
838.973	7.62
839.144	9.82
839.315	12.7
839.487	10.26
839.658	11.63
839.829	13.06
840	10.52
840.172	11.25
840.343	11.5
840.514	10.91
840.685	10.87
840.856	11.02
841.027	12.7
841.199	10.86
841.37	8.67
841.541	8.03
841.712	11.22
841.883	10.48
842.054	7.9
842.225	18.23
842.396	11.76
842.567	4.28
842.738	10.92
842.909	15.77
843.08	10.36
843.251	12.08
843.422	8.72
843.593	11.56
843.764	11.98
843.935	13.49
844.106	8.79
844.277	10.65
844.448	12.58
844.619	8.29
844.79	15.14
844.96	12.02
845.131	10.2
845.302	12.21
845.473	13.86
845.644	8.7
845.814	11.77
845.985	8.96
846.156	12.03
846.327	5.3
846.497	7.47
846.668	8.69
846.839	9.8
847.01	10.63
847.18	8.82
847.351	12.79
847.522	14.32
847.692	8.59
847.863	7.36
848.033	13.31
848.204	11.27
848.375	5.6
848.545	16.59
848.716	13.07
848.886	11.78
849.057	10.36
849.227	10.07
849.398	7.4
849.568	10.7
849.739	8.56
849.909	5.16
850.08	11.1
850.25	8.91
850.421	9.99
850.591	9.14
850.761	6.9
850.932	8.25
851.102	6.54
851.272	8.37
851.443	6.09
851.613	9.58
851.783	8.03
851.954	8.86
852.124	9.39
852.294	7.82
852.465	11.04
852.635	9.5
852.805	6.63
852.975	7.92
853.145	10.5
853.316	10.89
853.486	5.58
853.656	15.69
853.826	11.44
853.996	11.1
854.166	12.23
854.337	13.22
854.507	10.64
854.677	14.18
854.847	17.56
855.017	8.53
855.187	11.62
855.357	8.67
855.527	8.62
855.697	12.84
855.867	6.49
856.037	13.66
856.207	8.52
856.377	13.78
856.547	6.64
856.717	18.96
856.887	11.82
857.057	11.01
857.227	12.05
857.397	11.38
857.566	13.98
857.736	7.22
857.906	10.24
858.076	12.77
858.246	7.07
858.416	12.09
858.585	5.61
858.755	6.61
858.925	16.51
859.095	17.42
859.264	16.81
859.434	12.65
859.604	13.24
859.774	6.77
859.943	10.49
860.113	10.75
860.283	12.87
860.452	9.02
860.622	9.94
860.791	8.8
860.961	13.53
861.131	8.38
861.3	6.97
861.47	8.76
861.639	3.6
861.809	17.53
861.978	14.92
862.148	8.11
862.318	15.23
862.487	4.58
862.657	7.21
862.826	5.84
862.995	7.93
863.165	14.22
863.334	3.97
863.504	6.82
863.673	12.12
863.843	13.12
864.012	16.46
864.181	12.6
864.351	14.83
864.52	7.33
864.689	4.73
864.859	10.35
865.028	11.48
865.197	5.24
865.366	12.36
865.536	12.33
865.705	22.63
865.874	5.86
866.043	11.03
866.213	12.79
866.382	4.17
866.551	16.6
866.72	11.36
866.889	13.25
867.059	2.83
867.228	1.3
867.397	7.17
867.566	6.17
867.735	19.82
867.904	1.36
868.073	14.78
868.242	12.61
868.411	7.05
868.58	15.13
868.749	16.45
868.918	9.48
869.087	10.88
869.256	8.63
869.425	11.55
869.594	11.86
869.763	14.18
869.932	11.97
870.101	5.09
870.27	8.62
870.439	1.23
870.608	7.57
870.777	8.24
870.945	9.67
871.114	15.81
871.283	-1.46
871.452	8.59
871.621	19.06
871.789	8.96
871.958	13.12
872.127	8.91
872.296	8.91
872.464	15.27
872.633	16.88
872.802	10.72
872.971	13.56
873.139	10.46
873.308	14.13
873.477	7.72
873.645	2.71
873.814	10.14
873.983	-4.57
874.151	12.39
874.32	13.78
874.488	11.86
874.657	15.22
874.826	15.46
874.994	20.36
875.163	6.68
875.331	15.53
875.5	10.34
875.668	14.48
875.837	14.44
876.005	9.74
876.174	14.68
876.342	12.11
876.51	17.78
876.679	11.88
876.847	16.39
877.016	10.55
877.184	12.19
877.352	16.02
877.521	18.21
877.689	4.8
877.857	7.08
878.026	10.01
878.194	15.3
878.362	1.91
878.531	3.45
878.699	15.66
878.867	7.73
879.036	13.02
879.204	16.77
879.372	7.16
879.54	4.58
879.708	15.73
879.877	12.7
880.045	6.64
880.213	11.72
880.381	14.9
880.549	15.46
880.717	16.87
880.885	16.72
881.054	2.68
881.222	19.74
881.39	22.87
881.558	16.87
881.726	-7.71
881.894	28.44
882.062	11.6
882.23	7.05
882.398	10.66
882.566	-0.28
882.734	16.38
882.902	29.78
883.07	7.38
883.238	13.26
883.406	16.73
883.574	16.39
883.741	9.44
883.909	10.05
884.077	18.55
884.245	24.43
884.413	6.1
884.581	2.84
884.749	12.55
884.916	-5.75
885.084	20.14
885.252	2.18
885.42	13.46
885.587	23.85
885.755	5.88
885.923	12.12
886.091	2.55
886.258	12.33
886.426	-3.29
886.594	12.78
886.761	12.56
886.929	12.28
887.097	1.18
887.264	9.08
887.432	27.98
887.6	10.37
887.767	15.04
887.935	10.66
888.102	14.13
888.27	5.02
888.438	22.02
888.605	1.44
888.773	16.68
888.94	20.53
889.108	10.92
889.275	24.24
889.443	17.65
889.61	13.22
889.778	10.79
889.945	3.63
890.112	6.34
890.28	18.78
890.447	21.63
890.615	11.09
890.782	39.07
890.949	15.65
891.117	-8.61
891.284	9.56
891.452	7.28
891.619	16.3
891.786	-1.93
891.953	14.3
892.121	20.98
892.288	20.75
892.455	17.01
892.623	10.36
892.79	15.86
892.957	10.6
893.124	29.9
893.291	9.37
893.459	11.27
893.626	16.9
893.793	2.43
893.96	22.87
894.127	11.92
894.294	21.76
894.461	9.67
894.629	25.22
894.796	3.73
894.963	21.74
895.13	21.63
895.297	17.89
895.464	14.02
895.631	6.38
895.798	24.06
895.965	21.13
896.132	21.77
896.299	11.16
896.466	18.49
896.633	13.73
896.8	-5.29
896.967	15.32
897.134	6.75
897.301	-9.2
897.467	23.62
897.634	5.52
897.801	31.24
897.968	0.36
898.135	8.97
898.302	9.59
898.469	17.52
898.635	11.41
898.802	19.65
898.969	10.2
899.136	18.6
899.303	12.03
