Data from x0_Transmission_15-10-11-747.txt Node
Date: Thu May 02 15:10:11 EDT 2019
User: dh1006
Spectrometer: USB4E01358
Autoset integration time: false
Trigger mode: 4
Integration Time (sec): 8.000000E-2
Scans to average: 1
Electric dark correction enabled: true
Nonlinearity correction enabled: false
Boxcar width: 0
Stray light correction enabled: false
XAxis mode: Wavelengths
Stop averaging: false
Number of Pixels in Spectrum: 3648
>>>>>Begin Spectral Data<<<<<
176.727	-1816.67
176.966	-1816.67
177.205	-1816.67
177.444	255.06
177.683	226.01
177.922	-55.92
178.161	470.37
178.4	-248
178.638	6525
178.877	472.46
179.116	28.42
179.355	-654.55
179.593	-35.86
179.832	-75.39
180.071	23.1
180.309	-4633.33
180.548	116.55
180.786	84.74
181.025	3275
181.263	-111.72
181.502	-152.52
181.74	66.36
181.979	151.9
182.217	-127.17
182.456	56.16
182.694	-36.71
182.932	-18.33
183.17	21.45
183.409	-34.69
183.647	46.31
183.885	890.53
184.123	-72.86
184.361	-19.42
184.6	3.55
184.838	-2033.33
185.076	396.43
185.314	31.37
185.552	75.75
185.79	-41.57
186.028	44.17
186.266	145.11
186.503	137.13
186.741	96.07
186.979	35.59
187.217	2625
187.455	44.12
187.693	-31.52
187.93	87.81
188.168	891.67
188.406	27.26
188.643	-11.37
188.881	133.33
189.119	-40.82
189.356	-239.81
189.594	92.36
189.831	495.04
190.069	94.22
190.306	-27.36
190.543	16.17
190.781	52.19
191.018	101.63
191.256	-108.2
191.493	-232.76
191.73	13.45
191.967	-346.43
192.205	-63.32
192.442	51.35
192.679	3600
192.916	-96.88
193.153	35.59
193.39	-950
193.628	346.06
193.865	-9.34
194.102	30.16
194.339	-20.49
194.576	117.69
194.813	61.77
195.049	8.75
195.286	102.82
195.523	-66.93
195.76	76.32
195.997	49.46
196.234	63.86
196.47	88.98
196.707	185.07
196.944	19.41
197.18	57.42
197.417	-25.78
197.654	-5.83
197.89	36.47
198.127	78.92
198.363	-180.46
198.6	-12.08
198.836	-40
199.073	64.2
199.309	103.9
199.546	63.06
199.782	-91.51
200.018	-213.33
200.255	138.53
200.491	-511.63
200.727	-33.92
200.963	-15.88
201.199	36.65
201.436	-22.47
201.672	-13.49
201.908	78.64
202.144	4.91
202.38	55.79
202.616	14.71
202.852	180.53
203.088	-18.74
203.324	288.42
203.56	-204.88
203.796	-16.83
204.032	17.35
204.268	539.58
204.503	85.94
204.739	-202.31
204.975	41.77
205.211	110.22
205.446	118.14
205.682	5.67
205.918	-451.16
206.153	21.55
206.389	209.17
206.625	99.05
206.86	7.27
207.096	122.5
207.331	23.41
207.567	154.3
207.802	-246.94
208.037	56.09
208.273	-24.58
208.508	-372.22
208.744	-22.51
208.979	72.54
209.214	5550
209.449	-27.8
209.685	-101.97
209.92	150.87
210.155	87.82
210.39	22.25
210.625	210.71
210.86	0.4
211.095	171.57
211.33	63.14
211.565	12.96
211.8	73.56
212.035	86.78
212.27	81.18
212.505	27.3
212.74	132.23
212.975	-418.18
213.21	234.41
213.444	201.82
213.679	38.12
213.914	42.37
214.149	34.81
214.383	44.5
214.618	21.75
214.853	36.02
215.087	-13.44
215.322	63.53
215.556	98.49
215.791	-420.93
216.025	-300
216.26	110.94
216.494	209.46
216.729	61.11
216.963	99.15
217.197	25.58
217.432	26.15
217.666	603.66
217.9	25.58
218.135	-5.59
218.369	-2322.22
218.603	268.26
218.837	80.06
219.071	116.41
219.306	53.29
219.54	103.99
219.774	39.92
220.008	54.19
220.242	-181.82
220.476	1382.35
220.71	92.18
220.944	96.3
221.178	-458.54
221.411	-53.45
221.645	48.03
221.879	63.48
222.113	1346.67
222.347	77.18
222.58	-56.13
222.814	15.67
223.048	-143.52
223.281	-16.8
223.515	33.63
223.749	-121.25
223.982	-83.94
224.216	792
224.449	-77.63
224.683	-12.53
224.916	-420.37
225.15	116.79
225.383	-118
225.617	-6.05
225.85	87.38
226.083	61.74
226.317	85.27
226.55	196.48
226.783	289.81
227.016	16.74
227.25	331.43
227.483	-392.86
227.716	-4.89
227.949	87.67
228.182	37.34
228.415	-57.28
228.648	146.88
228.881	88.66
229.114	-58.31
229.347	37.42
229.58	493
229.813	-0.16
230.046	34.85
230.279	-115.23
230.512	48.83
230.745	64
230.977	67.88
231.21	16.12
231.443	-41.8
231.675	240.76
231.908	2988.24
232.141	91.24
232.373	-327.37
232.606	-17.01
232.839	73.29
233.071	-11.11
233.304	25
233.536	425.26
233.769	197.24
234.001	17.22
234.233	25
234.466	50.86
234.698	12.25
234.93	-178.97
235.163	99.41
235.395	486.05
235.627	-43.94
235.86	-507.25
236.092	155.33
236.324	6.12
236.556	29.2
236.788	8.03
237.02	36.9
237.252	36.88
237.484	8.47
237.716	176.67
237.948	189.11
238.18	484.3
238.412	105.03
238.644	126.56
238.876	49.38
239.108	0.32
239.34	-683.61
239.571	-128.95
239.803	-8.28
240.035	-22.37
240.267	148.1
240.498	855.56
240.73	1063.93
240.962	261.81
241.193	19.13
241.425	75.2
241.656	74.1
241.888	7.34
242.119	-29.43
242.351	274.42
242.582	227.36
242.814	409.09
243.045	63.37
243.277	311.19
243.508	-194.59
243.739	-112.14
243.971	45.7
244.202	-23.8
244.433	-112.14
244.664	46.18
244.896	168.99
245.127	81.98
245.358	164.29
245.589	-52.02
245.82	115.85
246.051	29.37
246.282	96.11
246.513	-197.75
246.744	48.75
246.975	175.61
247.206	26.07
247.437	-102.25
247.668	-384.26
247.899	-13.2
248.129	98.13
248.36	-35.8
248.591	20.63
248.822	52.25
249.052	-105.97
249.283	71.68
249.514	23
249.744	67.22
249.975	140.19
250.206	71.92
250.436	43.77
250.667	17.99
250.897	94.02
251.128	-2.66
251.358	437.84
251.589	28.61
251.819	-36.9
252.049	108.3
252.28	82.91
252.51	-14.63
252.74	51.82
252.971	-4850
253.201	38.3
253.431	9.18
253.661	-91.51
253.891	-31.87
254.121	25
254.352	144.89
254.582	814.29
254.812	150.6
255.042	-182.41
255.272	34.38
255.502	0.27
255.732	-3477.78
255.962	786.89
256.192	39.07
256.421	13.2
256.651	58.52
256.881	-63.11
257.111	111.41
257.341	-68.82
257.57	113.72
257.8	89.6
258.03	113.46
258.259	61.61
258.489	53.24
258.719	73.97
258.948	8.86
259.178	51.27
259.407	286.73
259.637	-61.67
259.866	-48.13
260.096	111.56
260.325	286.13
260.555	82.35
260.784	42.37
261.013	-903.57
261.243	46.18
261.472	-247.3
261.701	58.22
261.931	-48.86
262.16	77.91
262.389	-29.44
262.618	-112.88
262.847	96.79
263.076	63.56
263.305	-91.86
263.535	12.74
263.764	8.25
263.993	86.87
264.222	28.77
264.451	-93.18
264.679	57.97
264.908	27.93
265.137	29.87
265.366	101.59
265.595	163.74
265.824	41.9
266.053	27.76
266.281	8.09
266.51	-6.35
266.739	15.57
266.967	-36.35
267.196	10100
267.425	109.14
267.653	-9.73
267.882	34.56
268.11	-176.19
268.339	-43.66
268.567	-195.75
268.796	-185.29
269.024	-392.86
269.253	-9.97
269.481	120.22
269.709	-16.36
269.938	110.53
270.166	65.69
270.394	35.87
270.623	69.62
270.851	-33.92
271.079	-37.67
271.307	71.78
271.535	84.35
271.764	29.51
271.992	105.67
272.22	35.89
272.448	64.91
272.676	95.32
272.904	-57.93
273.132	44.55
273.36	16.72
273.588	-12.44
273.816	-28.18
274.043	-20.79
274.271	127.71
274.499	12
274.727	-203.7
274.955	44.23
275.182	-22.91
275.41	-62.37
275.638	117.69
275.866	647.92
276.093	-7.31
276.321	74.06
276.548	12.8
276.776	105.01
277.003	71.68
277.231	1185.71
277.458	-11.11
277.686	-129.38
277.913	73.75
278.141	68.27
278.368	35.64
278.595	55.02
278.823	191.46
279.05	37.91
279.277	-51.42
279.505	31.72
279.732	-186.06
279.959	442.86
280.186	-9.34
280.413	41.58
280.641	218.5
280.868	-10.24
281.095	82.35
281.322	-1426.67
281.549	-54.62
281.776	26.18
282.003	60.65
282.23	67.59
282.457	13.91
282.683	43.2
282.91	-23.75
283.137	38.81
283.364	290.91
283.591	0.42
283.818	5875
284.044	365.12
284.271	26.68
284.498	38.94
284.724	73.3
284.951	62.52
285.178	78.54
285.404	88.53
285.631	49.75
285.857	-13.37
286.084	-30.19
286.31	12
286.537	-50.81
286.763	25.75
286.99	8.44
287.216	4322.22
287.442	-149.66
287.669	93.58
287.895	66.42
288.121	46.04
288.347	191.6
288.574	-10.52
288.8	27.75
289.026	-34.09
289.252	141.91
289.478	223.88
289.704	69.49
289.931	14.11
290.157	53.45
290.383	-6.81
290.609	14.71
290.835	57.24
291.06	46.45
291.286	41.21
291.512	15.61
291.738	-12.44
291.964	71.2
292.19	180.67
292.416	7.53
292.641	86.49
292.867	-28.5
293.093	517.14
293.319	40.98
293.544	0.38
293.77	-13.44
293.995	263.13
294.221	34.29
294.447	67.97
294.672	229.83
294.898	30.12
295.123	115.74
295.349	103.16
295.574	904.88
295.799	-20.79
296.025	-71.4
296.25	36.02
296.476	259
296.701	24.62
296.926	0.18
297.151	-186.74
297.377	145.71
297.602	-40.82
297.827	50.98
298.052	98.13
298.277	58
298.502	24.05
298.727	198.16
298.953	17.9
299.178	52.18
299.403	366.33
299.628	38.21
299.852	-141.6
300.077	-605.88
300.302	-7.25
300.527	36.55
300.752	-62.03
300.977	376
301.202	104.92
301.426	-57.74
301.651	-77.14
301.876	-679.17
302.101	-144.62
302.325	29.67
302.55	-70.04
302.775	74.46
302.999	48.92
303.224	-56.25
303.448	35.77
303.673	-348.15
303.897	33.28
304.122	40.41
304.346	159.97
304.571	-53.82
304.795	239.46
305.019	15.28
305.244	45.37
305.468	437.84
305.692	117.58
305.917	172.73
306.141	46.36
306.365	-363.93
306.589	-27.62
306.813	9.35
307.038	37.38
307.262	133.33
307.486	21.9
307.71	6850
307.934	124.91
308.158	-269.94
308.382	38.12
308.606	-85.57
308.83	76.38
309.054	-103.56
309.278	43.63
309.502	68.11
309.725	105.78
309.949	21.08
310.173	12.55
310.397	89.1
310.62	427.61
310.844	70.76
311.068	33.12
311.292	45.65
311.515	26.08
311.739	512.5
311.962	-43.66
312.186	6.24
312.41	33.27
312.633	148.94
312.857	24.62
313.08	-107.41
313.303	36.02
313.527	-96.48
313.75	81.85
313.974	24.39
314.197	-116.97
314.42	126.33
314.644	162.05
314.867	10.36
315.09	-21.9
315.313	-1.41
315.536	31.22
315.76	-44.48
315.983	9.83
316.206	56.91
316.429	-129.38
316.652	-230.67
316.875	17.05
317.098	4.94
317.321	25
317.544	41.25
317.767	99.65
317.99	-5.77
318.213	-6.61
318.436	45.57
318.658	18.79
318.881	-79.66
319.104	-9.05
319.327	85.63
319.55	129.88
319.772	112.1
319.995	-820
320.218	52.74
320.44	-31.75
320.663	-12.94
320.885	-36.04
321.108	66.99
321.331	-53.23
321.553	-7.91
321.776	-1600
321.998	44.38
322.22	-64.92
322.443	153.03
322.665	168
322.888	16.22
323.11	-15.99
323.332	84.69
323.555	139.71
323.777	-49.12
323.999	-57.72
324.221	77.94
324.443	103.45
324.666	-39.64
324.888	38.64
325.11	-95.87
325.332	-12.56
325.554	-238.68
325.776	85.91
325.998	425.58
326.22	189.86
326.442	-30.08
326.664	-38.96
326.886	-60.85
327.108	300.69
327.33	404.89
327.551	31.23
327.773	9.03
327.995	20.63
328.217	94.26
328.439	10.79
328.66	30.33
328.882	-396.69
329.104	-114.29
329.325	-32.98
329.547	73.83
329.769	129.04
329.99	87.3
330.212	509.84
330.433	-36.13
330.655	52.89
330.876	64.13
331.098	637.7
331.319	25
331.54	-8.9
331.762	-24.52
331.983	99.4
332.204	87.67
332.426	11.62
332.647	203.93
332.868	24.49
333.089	31.72
333.311	34.33
333.532	45.51
333.753	-1340
333.974	23.09
334.195	-31.52
334.416	81.83
334.637	84.41
334.858	92.18
335.079	-137.5
335.3	-18.29
335.521	0.5
335.742	547.83
335.963	17.56
336.184	75.29
336.405	49.9
336.626	31.23
336.846	12.66
337.067	108.57
337.288	25.92
337.509	-1903.33
337.729	74.74
337.95	-723.26
338.171	0.5
338.391	124.84
338.612	89.26
338.833	1487.5
339.053	-66.87
339.274	88.46
339.494	49.88
339.715	360.32
339.935	-24.37
340.156	71.82
340.376	-23.59
340.596	27.25
340.817	591.43
341.037	111.39
341.257	129.66
341.478	-2.77
341.698	-20.92
341.918	-283.75
342.138	-29.58
342.359	-6.45
342.579	6
342.799	-24.24
343.019	114.31
343.239	36.1
343.459	-65.89
343.679	67.06
343.899	90
344.119	48.15
344.339	111.39
344.559	4.94
344.779	38.79
344.999	-70.32
345.219	18.77
345.439	0.26
345.658	4611.11
345.878	756.25
346.098	25.71
346.318	25.86
346.537	1118.18
346.757	23.5
346.977	38.21
347.196	1.82
347.416	28.82
347.636	30.2
347.855	136.97
348.075	69.32
348.294	146.88
348.514	313.89
348.733	68.73
348.953	-190.53
349.172	69.78
349.392	-122.57
349.611	16.71
349.83	95.65
350.05	0.25
350.269	0.14
350.488	50.56
350.707	342.53
350.927	14.98
351.146	-8.47
351.365	-36.88
351.584	-4.55
351.803	91.06
352.023	54.72
352.242	66.95
352.461	0.44
352.68	52.19
352.899	-22.79
353.118	-43.16
353.337	64.39
353.556	-71.93
353.775	38.54
353.993	20.05
354.212	49.92
354.431	32.47
354.65	117.66
354.869	82.85
355.088	56.3
355.306	104.87
355.525	9.91
355.744	25.42
355.962	-146.24
356.181	279.73
356.4	-37.72
356.618	-31.54
356.837	-12.94
357.055	-38.93
357.274	107.42
357.492	-360.19
357.711	64.11
357.929	49.83
358.148	-207.56
358.366	209.36
358.585	-183.15
358.803	-68.32
359.021	229.2
359.24	-6.3
359.458	-210.83
359.676	64.4
359.894	11
360.113	103.52
360.331	34.29
360.549	702.86
360.767	28.86
360.985	175.37
361.203	27.48
361.421	18
361.639	30.53
361.857	26.66
362.075	30.72
362.293	42.21
362.511	-197.15
362.729	-49.18
362.947	-54.8
363.165	41.25
363.383	29.85
363.601	66.17
363.819	-36.04
364.036	6.79
364.254	66.24
364.472	47.86
364.689	-29.01
364.907	9.52
365.125	293.12
365.342	-360.12
365.56	96.17
365.778	40.98
365.995	-88.75
366.213	133.33
366.43	-17.18
366.648	-26.91
366.865	84.26
367.083	53.29
367.3	25
367.517	-53.79
367.735	-16.24
367.952	41.56
368.17	-6.77
368.387	55.01
368.604	9.93
368.821	58.62
369.039	31.06
369.256	-25.86
369.473	35.17
369.69	80.12
369.907	-16225
370.124	881.82
370.341	5.88
370.558	21.65
370.776	55.98
370.993	41.74
371.21	88.17
371.426	-104.71
371.643	-34.57
371.86	55.01
372.077	-93.79
372.294	15.05
372.511	-4.15
372.728	0.15
372.945	30.74
373.161	21.19
373.378	-26.32
373.595	-15.88
373.811	40.42
374.028	-48.23
374.245	0.13
374.461	-28.48
374.678	40.73
374.895	15.44
375.111	25
375.328	26.66
375.544	402.7
375.761	47.51
375.977	40.9
376.194	74.74
376.41	121.93
376.626	-5.1
376.843	60.96
377.059	37.57
377.275	49.86
377.492	47.91
377.708	-29.89
377.924	34.97
378.14	47.94
378.357	67.11
378.573	-16.14
378.789	-8.12
379.005	38.91
379.221	2.55
379.437	25
379.653	-46.47
379.869	10.64
380.085	14.03
380.301	16.88
380.517	41.85
380.733	68.23
380.949	-39.31
381.165	-13.95
381.381	37.64
381.597	15.21
381.813	27.99
382.028	9.9
382.244	-12.13
382.46	-31.54
382.676	44.38
382.891	-38.01
383.107	51.39
383.323	33.78
383.538	7.37
383.754	-46.47
383.969	20.03
384.185	29.15
384.4	6.31
384.616	-3.3
384.831	60.36
385.047	-47.81
385.262	32.69
385.478	10.92
385.693	45.93
385.909	40.95
386.124	28.83
386.339	39.79
386.554	18.77
386.77	-28.34
386.985	-10.47
387.2	4.49
387.415	118.15
387.631	35.07
387.846	8.01
388.061	42.11
388.276	11.62
388.491	2.11
388.706	21.93
388.921	-14.42
389.136	12.31
389.351	47.26
389.566	22.55
389.781	58.67
389.996	76.4
390.211	24.41
390.426	32.52
390.641	19.81
390.855	3.98
391.07	37.58
391.285	45.06
391.5	-21.93
391.714	38.54
391.929	20.39
392.144	35.94
392.358	28.46
392.573	11.05
392.788	7.68
393.002	22.33
393.217	37.38
393.431	-35.67
393.646	26.24
393.86	20.25
394.075	9.01
394.289	16.14
394.504	14.38
394.718	29.89
394.933	19.67
395.147	28.43
395.361	14.23
395.576	28.57
395.79	6.85
396.004	9.81
396.218	11.26
396.432	0.04
396.647	22.09
396.861	22.75
397.075	35.2
397.289	10.17
397.503	25
397.717	10.15
397.931	16.94
398.145	8.76
398.359	16.03
398.573	-4.31
398.787	22.14
399.001	21.06
399.215	23.91
399.429	15.58
399.643	19.55
399.857	4.91
400.07	25.26
400.284	15.71
400.498	8.29
400.712	24.09
400.925	15.68
401.139	11.84
401.353	11.06
401.566	24.55
401.78	16.47
401.994	5.02
402.207	17.97
402.421	14.29
402.634	8.54
402.848	22.44
403.061	5.32
403.275	17.22
403.488	19.75
403.702	15.82
403.915	16.13
404.128	18.47
404.342	16.42
404.555	10.23
404.768	17.52
404.982	20.83
405.195	13.34
405.408	14.62
405.621	22.4
405.835	17.85
406.048	11.1
406.261	13.61
406.474	18.41
406.687	12.64
406.9	15.28
407.113	13.45
407.326	14.94
407.539	10.29
407.752	9.55
407.965	12.65
408.178	15.22
408.391	15.6
408.604	14.9
408.817	12.21
409.029	12.22
409.242	10.6
409.455	8.36
409.668	11.03
409.881	8.17
410.093	12.15
410.306	11.5
410.519	10.38
410.731	6.87
410.944	14.22
411.157	12.37
411.369	10.19
411.582	12.3
411.794	8.57
412.007	12.28
412.219	15
412.432	14.4
412.644	9.47
412.857	13.18
413.069	10.92
413.281	13.86
413.494	11.66
413.706	15.75
413.918	9.74
414.131	9.58
414.343	10.36
414.555	7.38
414.767	11.49
414.979	10.64
415.192	9.28
415.404	7.47
415.616	7.44
415.828	9.97
416.04	4.46
416.252	12.83
416.464	8.71
416.676	9.01
416.888	8.9
417.1	5.4
417.312	9.05
417.524	5.3
417.736	8.13
417.948	7.36
418.159	9.44
418.371	10.64
418.583	5.97
418.795	5.92
419.007	6.77
419.218	6.65
419.43	9.57
419.642	4.84
419.853	8.58
420.065	7.49
420.276	7.67
420.488	6.68
420.7	4.95
420.911	8.82
421.123	5.98
421.334	5.29
421.546	9.26
421.757	3.8
421.969	6.67
422.18	5.97
422.391	7.05
422.603	5.58
422.814	7.23
423.025	2.82
423.237	6.57
423.448	6.76
423.659	7.21
423.87	2.77
424.082	2.79
424.293	4.6
424.504	8.44
424.715	6.56
424.926	5.13
425.137	1.3
425.348	4.69
425.559	5.64
425.77	7.32
425.981	4.17
426.192	7.08
426.403	5.14
426.614	2.02
426.825	7.5
427.036	7
427.247	4.57
427.458	7.18
427.668	3.23
427.879	6.28
428.09	5.52
428.301	3.98
428.511	2.67
428.722	4.42
428.933	3.05
429.143	3.36
429.354	3.3
429.565	3.62
429.775	3.22
429.986	2.94
430.196	2.78
430.407	1.61
430.617	-0.84
430.828	3.87
431.038	3.34
431.249	3.2
431.459	5.66
431.669	5.73
431.88	4.38
432.09	5.91
432.3	1.93
432.511	1.85
432.721	3.59
432.931	4.24
433.141	-0.18
433.351	2.19
433.562	2.62
433.772	3.38
433.982	4.93
434.192	5.14
434.402	4.83
434.612	1.75
434.822	1.07
435.032	3.43
435.242	3.36
435.452	1.31
435.662	2.38
435.872	2.42
436.082	3.86
436.292	4.86
436.502	3.29
436.711	1.68
436.921	3.11
437.131	2.37
437.341	3.21
437.551	5.12
437.76	5.08
437.97	4.25
438.18	0.13
438.389	4.1
438.599	2.95
438.808	2.82
439.018	2.36
439.228	2.21
439.437	3.05
439.647	2.94
439.856	2.88
440.066	4.14
440.275	2.58
440.484	5.51
440.694	0.42
440.903	4.85
441.113	2.18
441.322	3.09
441.531	2.94
441.741	5
441.95	5.86
442.159	1.75
442.368	3.34
442.577	1.49
442.787	3.04
442.996	2.91
443.205	0.97
443.414	3.1
443.623	4.67
443.832	0.51
444.041	3.18
444.25	2.98
444.459	1.04
444.668	2.68
444.877	2.63
445.086	3.02
445.295	3.71
445.504	5.57
445.713	3.78
445.922	1.22
446.13	1.73
446.339	0.48
446.548	1.56
446.757	4.6
446.965	1.41
447.174	0.94
447.383	2.13
447.591	-0.26
447.8	3.8
448.009	0.52
448.217	3.64
448.426	2.63
448.634	2.44
448.843	-0.58
449.051	3
449.26	3.76
449.468	4.72
449.677	4.83
449.885	4.58
450.093	3.28
450.302	0.84
450.51	2.4
450.719	-0.34
450.927	0.07
451.135	0.93
451.343	2.4
451.552	3.17
451.76	2.51
451.968	4.51
452.176	3.68
452.384	0.75
452.592	3.86
452.8	4.13
453.009	3.96
453.217	2.98
453.425	3.56
453.633	2.2
453.841	0.95
454.049	3.77
454.257	1.01
454.464	4.3
454.672	5.42
454.88	1.96
455.088	2.44
455.296	1.57
455.504	4
455.711	3.15
455.919	1.44
456.127	1.24
456.335	3.76
456.542	1.69
456.75	2.82
456.958	1.52
457.165	2.68
457.373	-0.19
457.581	0.2
457.788	1.39
457.996	3.33
458.203	3.42
458.411	3.22
458.618	0.58
458.826	0.42
459.033	7.13
459.24	3.86
459.448	3.19
459.655	2.13
459.863	0.96
460.07	4.11
460.277	0.01
460.484	2.57
460.692	5.2
460.899	1.72
461.106	1.56
461.313	4.4
461.52	3.18
461.728	3.09
461.935	3.07
462.142	0.93
462.349	5.95
462.556	1.79
462.763	1.44
462.97	2.1
463.177	4.04
463.384	1.93
463.591	3.47
463.798	5.01
464.005	3.14
464.212	2.36
464.418	2
464.625	6.14
464.832	2.98
465.039	0.58
465.246	3.6
465.452	4.01
465.659	3.71
465.866	3
466.072	0.87
466.279	3.79
466.486	2.57
466.692	2.63
466.899	3.32
467.105	0.75
467.312	2.83
467.519	2.9
467.725	0.4
467.931	3
468.138	2.2
468.344	3.87
468.551	2.42
468.757	3.1
468.964	3.84
469.17	1.73
469.376	3.2
469.583	3.87
469.789	4.25
469.995	0.79
470.201	5.35
470.408	0.21
470.614	2.32
470.82	1.47
471.026	-0.46
471.232	1.24
471.438	2.14
471.644	4.83
471.85	3.93
472.056	2.62
472.262	5.06
472.468	2.55
472.674	3.57
472.88	3.24
473.086	2.2
473.292	2.42
473.498	3.16
473.704	1.8
473.91	4.05
474.116	3.22
474.321	3.7
474.527	1.71
474.733	4.78
474.939	3.38
475.144	4.59
475.35	0.83
475.556	2.17
475.761	3.02
475.967	3.57
476.173	2.9
476.378	4.95
476.584	3.17
476.789	4.32
476.995	2.79
477.2	1.79
477.406	3.61
477.611	1.7
477.817	3.09
478.022	3
478.227	3.15
478.433	3.37
478.638	2.65
478.843	4.97
479.049	2.32
479.254	2.25
479.459	2.17
479.664	3.05
479.87	5.73
480.075	4.59
480.28	3.78
480.485	5.26
480.69	4.39
480.895	3.27
481.1	3.17
481.306	3.85
481.511	4.82
481.716	4.25
481.921	2.73
482.126	4.71
482.33	3.7
482.535	3.57
482.74	3.74
482.945	3.83
483.15	2.58
483.355	3.91
483.56	3.01
483.765	3.24
483.969	3.47
484.174	4.5
484.379	4.64
484.583	4.47
484.788	3.26
484.993	4.19
485.197	5.3
485.402	3.83
485.607	5.39
485.811	4.23
486.016	5.26
486.22	5.85
486.425	5
486.629	5.54
486.834	5.26
487.038	5
487.243	5.68
487.447	4.92
487.652	4.72
487.856	4.8
488.06	4.85
488.265	5.52
488.469	4.51
488.673	5.29
488.877	5.01
489.082	5.75
489.286	6.15
489.49	4.88
489.694	5.57
489.898	6.6
490.102	5.88
490.307	5.66
490.511	4.97
490.715	5.76
490.919	5.73
491.123	5.69
491.327	6.69
491.531	5.58
491.735	6.02
491.939	6.15
492.143	6.95
492.346	7.33
492.55	5.28
492.754	6.5
492.958	6.37
493.162	6.21
493.366	5.98
493.569	7.62
493.773	7.23
493.977	7.37
494.18	8.41
494.384	7.73
494.588	7.78
494.791	8
494.995	7.49
495.199	8.24
495.402	9.55
495.606	7.1
495.809	10.11
496.013	7.92
496.216	9.53
496.42	8.11
496.623	8.02
496.827	8.62
497.03	10.61
497.233	8.63
497.437	9.01
497.64	9.59
497.843	8.86
498.047	10.49
498.25	10.12
498.453	10.08
498.656	9.46
498.86	11.76
499.063	11.06
499.266	10.18
499.469	11.29
499.672	12.97
499.875	11.17
500.078	10.05
500.281	12.08
500.484	11.5
500.687	11.43
500.89	12.31
501.093	13.23
501.296	13.65
501.499	12.57
501.702	12.29
501.905	13.95
502.108	14.13
502.311	13.88
502.514	13.76
502.716	13.94
502.919	14.5
503.122	13.48
503.325	15.02
503.527	13.92
503.73	14.8
503.933	14.11
504.135	14.94
504.338	14.59
504.541	15.19
504.743	14.27
504.946	14.97
505.148	15.59
505.351	16.01
505.553	14.31
505.756	15.35
505.958	15.5
506.161	16.3
506.363	15.7
506.565	15.7
506.768	15.79
506.97	14.42
507.172	15.04
507.375	14.91
507.577	14.22
507.779	14.75
507.982	16.55
508.184	14.99
508.386	14.9
508.588	14.94
508.79	15.15
508.993	16.53
509.195	16.05
509.397	16.26
509.599	15.39
509.801	14.9
510.003	14.93
510.205	15.82
510.407	15.43
510.609	15.52
510.811	14.75
511.013	14.94
511.215	15.54
511.417	14.79
511.618	14.55
511.82	13.92
512.022	14.31
512.224	14.21
512.426	13.54
512.627	13.65
512.829	13.95
513.031	14.17
513.233	13.82
513.434	13.21
513.636	12.58
513.838	13.61
514.039	13.03
514.241	12.67
514.442	12.86
514.644	12.26
514.845	11.93
515.047	11.91
515.248	12
515.45	10.52
515.651	11.1
515.853	10.87
516.054	11.32
516.256	10.66
516.457	11.81
516.658	10.22
516.86	9.99
517.061	9.67
517.262	9.94
517.463	10.17
517.665	10.29
517.866	9.79
518.067	9.84
518.268	10.46
518.469	9.37
518.67	9.36
518.872	9.08
519.073	8.89
519.274	8.73
519.475	8.17
519.676	8.22
519.877	8.62
520.078	9.21
520.279	8.59
520.48	7.23
520.681	8.08
520.881	7.57
521.082	8.55
521.283	7.47
521.484	7.76
521.685	8.18
521.886	8.06
522.086	7.35
522.287	7.45
522.488	7.08
522.689	7.04
522.889	7.16
523.09	6.62
523.291	7.26
523.491	7.17
523.692	7.09
523.892	6.79
524.093	7.22
524.294	6.66
524.494	6.3
524.695	6.38
524.895	5.84
525.096	6.52
525.296	5.95
525.496	6.18
525.697	5.89
525.897	5.98
526.098	6.13
526.298	6.47
526.498	6.18
526.699	5.44
526.899	5.74
527.099	5.58
527.299	5.28
527.499	5.24
527.7	5.23
527.9	5.2
528.1	5.46
528.3	5.49
528.5	5.16
528.7	4.6
528.9	4.95
529.1	4.98
529.3	5.32
529.5	4.68
529.7	4.47
529.9	4.6
530.1	4.52
530.3	4.33
530.5	4.36
530.7	5.18
530.9	4.75
531.1	4.83
531.3	4.76
531.499	4.01
531.699	4.66
531.899	4.05
532.099	4.36
532.298	3.95
532.498	4.28
532.698	4
532.897	4.31
533.097	4.13
533.297	3.68
533.496	4.67
533.696	3.85
533.895	4.14
534.095	3.94
534.294	3.93
534.494	3.82
534.693	3.58
534.893	4.34
535.092	3.88
535.292	3.63
535.491	3.68
535.69	3.36
535.89	3.27
536.089	3.78
536.288	3.34
536.488	3.04
536.687	3.7
536.886	3.43
537.085	3.54
537.285	3.23
537.484	3.46
537.683	3.3
537.882	2.92
538.081	3.17
538.28	3.43
538.479	2.96
538.678	3
538.877	3.58
539.076	2.99
539.275	2.88
539.474	3.05
539.673	3.32
539.872	2.78
540.071	3.59
540.27	3.13
540.469	3.41
540.668	3.1
540.867	3.11
541.065	2.92
541.264	2.7
541.463	2.45
541.662	2.55
541.861	2.67
542.059	2.47
542.258	2.84
542.457	3.44
542.655	2.53
542.854	2.45
543.052	2.79
543.251	2.79
543.45	2.67
543.648	2.89
543.847	2.71
544.045	2.05
544.244	2.76
544.442	2.75
544.641	2.15
544.839	2.68
545.037	2.88
545.236	2.67
545.434	2.45
545.632	2.57
545.831	2.91
546.029	2.42
546.227	2.55
546.426	2.14
546.624	2.02
546.822	2.57
547.02	1.93
547.218	2.5
547.417	2.14
547.615	2.4
547.813	2.32
548.011	2.43
548.209	3.21
548.407	2.56
548.605	2.23
548.803	2.37
549.001	2.49
549.199	2.2
549.397	2.62
549.595	2.09
549.793	2.28
549.991	2.82
550.189	2.55
550.387	2.55
550.584	2.46
550.782	2.28
550.98	2.2
551.178	2.39
551.376	2.21
551.573	1.71
551.771	2.25
551.969	2.53
552.166	2.09
552.364	2.11
552.562	2.04
552.759	2.18
552.957	1.68
553.154	2.22
553.352	2.05
553.55	2.02
553.747	2.08
553.945	2.31
554.142	2.17
554.339	2.19
554.537	2.31
554.734	2.12
554.932	2.38
555.129	2.2
555.326	2.03
555.524	2.17
555.721	2.21
555.918	2.15
556.116	1.85
556.313	2.31
556.51	1.93
556.707	2.15
556.904	1.94
557.102	1.68
557.299	2.4
557.496	1.8
557.693	1.91
557.89	2.16
558.087	2.13
558.284	1.77
558.481	2.1
558.678	1.81
558.875	1.82
559.072	2.12
559.269	2.09
559.466	1.87
559.663	2.05
559.86	2.1
560.057	2.17
560.254	1.64
560.45	1.97
560.647	1.76
560.844	2
561.041	1.86
561.237	1.74
561.434	2.05
561.631	1.99
561.828	1.65
562.024	1.87
562.221	1.9
562.418	1.92
562.614	1.96
562.811	2.14
563.007	2.01
563.204	1.95
563.4	2.02
563.597	1.95
563.793	1.71
563.99	1.8
564.186	1.73
564.383	1.82
564.579	1.97
564.775	2.01
564.972	1.9
565.168	1.86
565.365	2.13
565.561	1.88
565.757	1.93
565.953	1.65
566.15	1.78
566.346	2.05
566.542	2.02
566.738	1.87
566.934	2.14
567.131	1.98
567.327	2.28
567.523	1.72
567.719	1.58
567.915	1.87
568.111	1.88
568.307	2.06
568.503	1.84
568.699	1.48
568.895	1.84
569.091	1.98
569.287	1.99
569.483	1.74
569.679	1.91
569.875	1.79
570.07	1.87
570.266	1.97
570.462	1.98
570.658	1.86
570.854	1.68
571.049	1.82
571.245	2.03
571.441	2.06
571.636	1.78
571.832	1.87
572.028	1.84
572.223	1.91
572.419	1.89
572.615	1.96
572.81	1.74
573.006	1.78
573.201	1.84
573.397	1.84
573.592	1.76
573.788	1.88
573.983	1.76
574.179	2.04
574.374	2.04
574.569	2.11
574.765	1.79
574.96	1.49
575.156	1.87
575.351	1.56
575.546	2.01
575.741	1.79
575.937	1.95
576.132	2.24
576.327	1.96
576.522	1.82
576.718	1.55
576.913	1.91
577.108	2.05
577.303	2.13
577.498	1.73
577.693	1.91
577.888	1.96
578.083	1.93
578.278	1.99
578.473	1.79
578.668	1.93
578.863	1.9
579.058	1.87
579.253	1.75
579.448	2.07
579.643	1.94
579.838	1.6
580.033	2.13
580.227	1.7
580.422	1.72
580.617	1.99
580.812	1.99
581.006	1.87
581.201	2.14
581.396	2
581.591	2.1
581.785	1.91
581.98	2.12
582.175	1.86
582.369	2.03
582.564	2.12
582.758	2.18
582.953	2.09
583.147	1.92
583.342	1.95
583.536	2.01
583.731	1.98
583.925	1.97
584.12	2.03
584.314	2.04
584.509	1.65
584.703	2.12
584.897	1.89
585.092	2.23
585.286	2.26
585.48	1.85
585.674	2.22
585.869	2.13
586.063	2.13
586.257	2.33
586.451	2.08
586.646	2.2
586.84	1.71
587.034	1.92
587.228	1.8
587.422	1.96
587.616	1.85
587.81	1.97
588.004	1.87
588.198	2.05
588.392	2.15
588.586	2.34
588.78	2.01
588.974	1.84
589.168	2.09
589.362	2.3
589.556	2.3
589.75	2.14
589.944	2.18
590.137	2.14
590.331	2.17
590.525	2.44
590.719	2.34
590.913	2.27
591.106	2.24
591.3	2.02
591.494	2.27
591.687	2.26
591.881	2.25
592.075	2.18
592.268	2.15
592.462	1.98
592.655	1.95
592.849	2.14
593.043	2.68
593.236	2.17
593.43	2.05
593.623	1.81
593.817	2.08
594.01	2.2
594.203	2.35
594.397	2.25
594.59	2.41
594.784	2.35
594.977	2.26
595.17	2.34
595.364	1.98
595.557	2.36
595.75	2.27
595.943	2.22
596.137	2.28
596.33	2.28
596.523	2.62
596.716	2.57
596.909	2.39
597.102	2.58
597.296	2.58
597.489	2.31
597.682	2.44
597.875	2.36
598.068	2.15
598.261	2.41
598.454	2.42
598.647	2.3
598.84	2.35
599.033	2.33
599.226	2.41
599.419	2.21
599.611	2.42
599.804	2.4
599.997	2.55
600.19	2.31
600.383	2.41
600.576	2.3
600.768	2.21
600.961	2.38
601.154	2.41
601.347	2.46
601.539	2.68
601.732	2.41
601.925	2.72
602.117	2.75
602.31	2.7
602.502	2.45
602.695	2.54
602.888	2.7
603.08	2.48
603.273	2.54
603.465	2.76
603.658	2.66
603.85	2.64
604.043	2.65
604.235	2.71
604.427	2.59
604.62	2.53
604.812	2.69
605.004	2.53
605.197	2.68
605.389	2.64
605.581	2.44
605.774	2.87
605.966	2.67
606.158	2.91
606.35	2.77
606.543	2.59
606.735	2.76
606.927	2.59
607.119	3.02
607.311	2.65
607.503	2.78
607.695	2.92
607.887	3.21
608.079	2.95
608.271	3.12
608.463	2.65
608.655	2.75
608.847	2.97
609.039	2.89
609.231	3
609.423	2.68
609.615	2.98
609.807	2.82
609.999	3.01
610.191	3.24
610.382	3.06
610.574	3.19
610.766	3.13
610.958	3.38
611.15	3
611.341	3.07
611.533	3.39
611.725	3.14
611.916	3.47
612.108	3.22
612.3	3.12
612.491	3.29
612.683	3.19
612.874	3.27
613.066	3.15
613.257	3.39
613.449	3.27
613.64	3.08
613.832	3.14
614.023	3.25
614.215	3.2
614.406	3.32
614.598	3.29
614.789	3.34
614.98	3.51
615.172	3.19
615.363	3.6
615.554	3.44
615.746	3.1
615.937	3.11
616.128	3.65
616.319	3.54
616.511	3.08
616.702	3.68
616.893	3.58
617.084	3.47
617.275	3.64
617.466	3.46
617.658	3.55
617.849	3.88
618.04	3.67
618.231	3.37
618.422	3.56
618.613	3.65
618.804	3.78
618.995	3.78
619.186	4.01
619.377	3.51
619.568	3.69
619.758	3.72
619.949	3.73
620.14	3.69
620.331	3.79
620.522	3.99
620.713	3.75
620.903	4
621.094	3.92
621.285	3.99
621.476	4.07
621.666	3.98
621.857	4.05
622.048	4.09
622.238	3.94
622.429	4.46
622.62	4.22
622.81	4.34
623.001	4.65
623.191	4.38
623.382	4.27
623.572	4.39
623.763	4.3
623.953	4.11
624.144	4.32
624.334	4.34
624.525	4.5
624.715	4.57
624.905	4.4
625.096	4.68
625.286	4.54
625.477	4.54
625.667	4.82
625.857	4.59
626.047	4.44
626.238	4.53
626.428	4.74
626.618	4.87
626.808	4.66
626.999	4.7
627.189	4.91
627.379	4.65
627.569	5.02
627.759	4.86
627.949	4.97
628.139	4.77
628.329	5.16
628.519	4.95
628.709	5.07
628.899	4.8
629.089	4.89
629.279	4.98
629.469	5.01
629.659	4.89
629.849	5.23
630.039	5.09
630.229	5.2
630.419	5.21
630.609	5.04
630.798	5.32
630.988	5.33
631.178	5.17
631.368	5.44
631.557	5.51
631.747	5.51
631.937	5.37
632.127	5.54
632.316	5.42
632.506	5.73
632.696	5.68
632.885	5.7
633.075	5.61
633.264	5.52
633.454	5.83
633.643	5.74
633.833	6.04
634.022	5.76
634.212	5.91
634.401	6.03
634.591	5.75
634.78	6.13
634.97	5.84
635.159	5.92
635.348	5.93
635.538	6.03
635.727	5.9
635.916	6.19
636.106	6.29
636.295	6.4
636.484	6.16
636.674	6.25
636.863	6.18
637.052	6.06
637.241	6.05
637.43	6.26
637.619	6.21
637.809	6.22
637.998	6.73
638.187	6.66
638.376	6.48
638.565	6.71
638.754	6.69
638.943	6.73
639.132	6.9
639.321	6.64
639.51	6.58
639.699	6.66
639.888	6.48
640.077	6.91
640.266	6.59
640.455	7.14
640.643	6.73
640.832	6.78
641.021	6.79
641.21	6.99
641.399	7.05
641.587	7.2
641.776	6.98
641.965	7.17
642.154	7.49
642.342	7.27
642.531	7.53
642.72	7.45
642.908	7.67
643.097	7.56
643.286	7.81
643.474	8.09
643.663	7.75
643.851	7.33
644.04	7.25
644.228	7.71
644.417	7.76
644.605	7.78
644.794	7.64
644.982	7.58
645.171	7.9
645.359	8
645.547	7.86
645.736	7.95
645.924	7.75
646.112	8.02
646.301	8.01
646.489	7.81
646.677	7.87
646.866	8.17
647.054	8.22
647.242	8.1
647.43	8.29
647.618	8.67
647.807	8.64
647.995	8.48
648.183	8.54
648.371	8.74
648.559	8.44
648.747	8.79
648.935	8.75
649.123	8.61
649.311	8.99
649.499	8.99
649.687	9.04
649.875	8.54
650.063	9.27
650.251	8.9
650.439	9.2
650.627	8.97
650.815	9.1
651.003	9.09
651.191	9.01
651.378	9.14
651.566	9.56
651.754	9.46
651.942	9.38
652.13	9.79
652.317	9.65
652.505	10.1
652.693	9.94
652.88	10.28
653.068	9.79
653.256	10.11
653.443	10.06
653.631	10.16
653.819	9.86
654.006	10.28
654.194	10.38
654.381	10.07
654.569	10.34
654.756	9.97
654.944	10.35
655.131	10.29
655.319	10.58
655.506	10.18
655.693	10.43
655.881	10.66
656.068	10.4
656.256	11.09
656.443	10.79
656.63	10.9
656.818	10.95
657.005	10.8
657.192	10.78
657.379	10.98
657.567	11.05
657.754	10.78
657.941	11.27
658.128	10.64
658.315	11.09
658.502	10.73
658.69	11.43
658.877	11.49
659.064	11.68
659.251	11.92
659.438	11.81
659.625	11.66
659.812	12
659.999	11.58
660.186	11.79
660.373	11.89
660.56	11.73
660.747	12.15
660.934	12.05
661.121	11.85
661.308	12.42
661.494	12.14
661.681	12.32
661.868	12.47
662.055	12.37
662.242	12.02
662.428	12.2
662.615	12.68
662.802	13.12
662.989	13.03
663.175	13.09
663.362	13.56
663.549	13.31
663.735	13.48
663.922	13.42
664.109	13.64
664.295	13.21
664.482	13.56
664.668	13.01
664.855	12.94
665.041	13.31
665.228	13.35
665.414	13.54
665.601	13.2
665.787	13.72
665.974	13.54
666.16	13.23
666.347	13.48
666.533	13.45
666.719	13.31
666.906	13.37
667.092	13.54
667.278	13.78
667.465	13.45
667.651	13.77
667.837	14.03
668.023	13.76
668.21	13.91
668.396	13.78
668.582	14.04
668.768	13.56
668.954	14.12
669.14	14.24
669.327	14.24
669.513	14.81
669.699	14.67
669.885	14.67
670.071	14.42
670.257	14.69
670.443	14.77
670.629	14.35
670.815	14.83
671.001	14.6
671.187	14.56
671.373	14.59
671.559	14.56
671.744	15.12
671.93	15.27
672.116	15.72
672.302	15.47
672.488	15.27
672.674	15.6
672.859	15.59
673.045	15.79
673.231	16.03
673.417	15.09
673.602	15.42
673.788	15.68
673.974	15.57
674.159	15.03
674.345	15.32
674.531	15.45
674.716	15.78
674.902	15.38
675.087	16.02
675.273	16
675.459	16.39
675.644	15.96
675.83	15.72
676.015	15.86
676.2	15.73
676.386	15.76
676.571	15.64
676.757	15.22
676.942	15.9
677.128	15.7
677.313	15.74
677.498	15.25
677.684	15.5
677.869	15.76
678.054	16.01
678.24	16.14
678.425	16.35
678.61	16.33
678.795	16.39
678.98	16.26
679.166	16.3
679.351	16.18
679.536	16.51
679.721	16.7
679.906	16.25
680.091	16.28
680.276	15.94
680.461	16.87
680.647	16.57
680.832	16.86
681.017	16.82
681.202	17.04
681.387	16.65
681.572	16.63
681.756	16.61
681.941	16.46
682.126	16.63
682.311	16.66
682.496	15.96
682.681	16.44
682.866	16.53
683.051	16.7
683.235	16.52
683.42	17.51
683.605	16.87
683.79	17.16
683.974	17.18
684.159	16.86
684.344	17.11
684.529	17.14
684.713	16.91
684.898	16.26
685.083	16.9
685.267	16.8
685.452	17.35
685.636	17.31
685.821	17.4
686.005	17.43
686.19	17.5
686.375	17.56
686.559	16.78
686.744	16.73
686.928	16.81
687.112	16.6
687.297	16.9
687.481	16.52
687.666	16.51
687.85	16.66
688.034	16.63
688.219	16.68
688.403	16.57
688.587	16.75
688.772	16.63
688.956	16.96
689.14	17.09
689.324	17.55
689.509	17.29
689.693	16.91
689.877	17.22
690.061	17.21
690.245	16.26
690.43	16.73
690.614	16.8
690.798	16.04
690.982	16.29
691.166	16.83
691.35	16.7
691.534	17.05
691.718	16.98
691.902	16.44
692.086	16.46
692.27	16.83
692.454	16.69
692.638	16.65
692.822	16.94
693.006	17.05
693.19	17.59
693.373	17.33
693.557	17.33
693.741	16.44
693.925	17.15
694.109	16.91
694.293	17.18
694.476	16.82
694.66	17.06
694.844	16.97
695.027	16.68
695.211	17.23
695.395	17.44
695.578	17.07
695.762	16.8
695.946	17.29
696.129	16.68
696.313	16.7
696.497	17.02
696.68	16.62
696.864	16.86
697.047	17
697.231	16.55
697.414	16.58
697.598	16.25
697.781	16.06
697.965	15.89
698.148	16.23
698.331	16.04
698.515	16.52
698.698	16.82
698.881	16.6
699.065	17.02
699.248	16.86
699.431	16.7
699.615	16.61
699.798	16.84
699.981	16.66
700.165	16.73
700.348	16.54
700.531	16.68
700.714	16.5
700.897	16.21
701.08	16.29
701.264	15.92
701.447	16.53
701.63	16.1
701.813	16.42
701.996	16.5
702.179	16.48
702.362	16.75
702.545	16.72
702.728	16.36
702.911	16.9
703.094	16.75
703.277	17.38
703.46	16.84
703.643	16.72
703.826	17.17
704.009	16.47
704.191	16.37
704.374	16.24
704.557	16.34
704.74	16.36
704.923	16.19
705.106	15.99
705.288	15.84
705.471	15.99
705.654	15.62
705.837	15.9
706.019	16.02
706.202	16.26
706.385	16.5
706.567	15.96
706.75	15.88
706.932	15.85
707.115	15.79
707.298	15.24
707.48	15.52
707.663	15.26
707.845	15.67
708.028	15.86
708.21	15.86
708.393	15.56
708.575	15.98
708.758	15.79
708.94	16.2
709.123	16.08
709.305	16.15
709.487	15.85
709.67	15.92
709.852	16.17
710.034	15.79
710.217	16.13
710.399	16.04
710.581	16.18
710.764	16.38
710.946	16.27
711.128	15.18
711.31	15.25
711.492	15.66
711.675	15.34
711.857	15.47
712.039	15.97
712.221	15.55
712.403	15.97
712.585	15.5
712.767	15.3
712.949	15.44
713.131	16.24
713.314	15.78
713.496	15.69
713.678	15.71
713.86	15.83
714.041	15.91
714.223	15.82
714.405	15.29
714.587	14.95
714.769	14.94
714.951	15.55
715.133	15.59
715.315	15.87
715.497	16.36
715.678	15.62
715.86	15.98
716.042	15.46
716.224	15.14
716.406	15.53
716.587	15.66
716.769	15.13
716.951	16.01
717.132	15.6
717.314	14.83
717.496	14.92
717.677	15.42
717.859	15.41
718.041	15.62
718.222	14.87
718.404	14.62
718.585	15.01
718.767	15.3
718.948	14.63
719.13	15.01
719.311	15.21
719.493	15.42
719.674	15.54
719.856	15.38
720.037	15.12
720.219	15.38
720.4	14.94
720.581	15.23
720.763	15.52
720.944	15.58
721.125	15.44
721.307	15.13
721.488	15.06
721.669	15.1
721.85	15.49
722.032	14.68
722.213	15.06
722.394	15.22
722.575	15.13
722.756	14.77
722.938	14.96
723.119	15.04
723.3	14.72
723.481	15.13
723.662	14.83
723.843	14.86
724.024	14.62
724.205	15.14
724.386	14.97
724.567	14.79
724.748	15.06
724.929	15.12
725.11	15.25
725.291	15.46
725.472	15.42
725.653	15.38
725.834	14.98
726.015	14.92
726.196	15.12
726.377	14.93
726.557	14.93
726.738	15.65
726.919	14.93
727.1	14.75
727.281	15.27
727.461	15.22
727.642	15.13
727.823	14.62
728.004	15.26
728.184	15.1
728.365	15.09
728.546	14.77
728.726	15.32
728.907	14.89
729.087	14.6
729.268	14.76
729.449	14.42
729.629	14.65
729.81	15.13
729.99	13.97
730.171	14.56
730.351	14.38
730.532	14.85
730.712	14.18
730.893	14.52
731.073	13.77
731.253	13.72
731.434	13.87
731.614	14.01
731.795	13.55
731.975	13.92
732.155	14.01
732.336	14.2
732.516	15
732.696	14.69
732.876	14.24
733.057	14.22
733.237	13.57
733.417	13.8
733.597	13.9
733.778	13.91
733.958	13.48
734.138	13.62
734.318	14
734.498	13.86
734.678	13.44
734.858	14.04
735.038	14.09
735.218	14.72
735.398	14.52
735.579	14.79
735.759	14.46
735.939	14.32
736.119	15.01
736.298	14.67
736.478	14.04
736.658	14.13
736.838	14.09
737.018	14.47
737.198	14.69
737.378	14.74
737.558	14.87
737.738	15.05
737.917	14.48
738.097	14.34
738.277	14.23
738.457	14.54
738.637	13.91
738.816	13.84
738.996	13.94
739.176	14.2
739.355	13.86
739.535	13.57
739.715	13.64
739.894	14.04
740.074	13.87
740.254	13.71
740.433	13.27
740.613	13.35
740.792	13.86
740.972	13.9
741.151	13.81
741.331	13.77
741.51	14.05
741.69	14.1
741.869	14.72
742.049	14.46
742.228	14.57
742.408	14.08
742.587	14.21
742.766	14.25
742.946	14.32
743.125	14.68
743.305	13.79
743.484	14.32
743.663	14.29
743.842	13.47
744.022	14.09
744.201	14.29
744.38	14.19
744.56	14.27
744.739	13.51
744.918	13.72
745.097	14.2
745.276	13.95
745.455	13.65
745.635	14.32
745.814	14.27
745.993	14.57
746.172	13.47
746.351	13.87
746.53	14.31
746.709	13.64
746.888	13.79
747.067	13.66
747.246	13.53
747.425	13.65
747.604	13.79
747.783	14.06
747.962	14.61
748.141	14.59
748.32	14.09
748.499	14.06
748.677	13.67
748.856	13.82
749.035	13.85
749.214	14.74
749.393	13.93
749.572	14.25
749.75	14.16
749.929	14.7
750.108	14.13
750.287	14.39
750.465	14
750.644	14.66
750.823	13.75
751.001	13.99
751.18	13.53
751.359	13.25
751.537	13.33
751.716	12.93
751.894	12.75
752.073	13.45
752.251	13.52
752.43	13.64
752.609	13.81
752.787	13.78
752.966	13.53
753.144	13.6
753.322	13.53
753.501	13.32
753.679	12.82
753.858	13.22
754.036	13.64
754.215	13.45
754.393	13.19
754.571	12.39
754.75	13.49
754.928	12.86
755.106	13.46
755.284	13.66
755.463	13.81
755.641	13.31
755.819	14.11
755.997	14.45
756.176	13.91
756.354	14.12
756.532	14.04
756.71	13.72
756.888	13.84
757.066	13.75
757.245	13.66
757.423	13.27
757.601	12.82
757.779	12.71
757.957	13.33
758.135	13.38
758.313	13.82
758.491	13.08
758.669	13.29
758.847	13.56
759.025	13.36
759.203	13.51
759.381	13.44
759.559	13.53
759.737	13.5
759.915	13.5
760.092	13.6
760.27	13.43
760.448	13.09
760.626	13.52
760.804	13.66
760.981	12.93
761.159	13.33
761.337	13.5
761.515	13.37
761.692	13.38
761.87	13.19
762.048	12.54
762.226	13.43
762.403	12.65
762.581	13.29
762.759	13.41
762.936	13.78
763.114	13.61
763.291	13.7
763.469	14.1
763.647	13.74
763.824	13.04
764.002	14.17
764.179	14.05
764.357	13.56
764.534	13.64
764.712	13.44
764.889	13.19
765.066	13.51
765.244	12.85
765.421	13.25
765.599	13.17
765.776	13.16
765.953	12.21
766.131	13.3
766.308	12.77
766.485	13.06
766.663	13.01
766.84	13.48
767.017	12.69
767.194	12.82
767.372	12.88
767.549	13.96
767.726	13.61
767.903	12.99
768.081	12.32
768.258	13.29
768.435	13.4
768.612	13.71
768.789	13.05
768.966	12.87
769.143	12.54
769.32	12.9
769.497	13.36
769.674	12.43
769.851	13.34
770.028	12.89
770.205	13.28
770.382	13.94
770.559	12.95
770.736	13.59
770.913	13.66
771.09	13.6
771.267	13.31
771.444	13.39
771.621	12.04
771.798	12.35
771.975	14.21
772.151	14.25
772.328	14.22
772.505	14.09
772.682	12.9
772.859	14.33
773.035	13.34
773.212	13.18
773.389	12.89
773.565	13.77
773.742	12.86
773.919	12.27
774.096	12.18
774.272	13.09
774.449	11.36
774.625	12.38
774.802	12.99
774.979	13.08
775.155	12.7
775.332	13.05
775.508	14.42
775.685	13.31
775.861	13.22
776.038	12.92
776.214	12.46
776.391	12.67
776.567	13.06
776.744	13.72
776.92	14.15
777.096	12.02
777.273	13.7
777.449	13.33
777.626	12.3
777.802	12.65
777.978	12.83
778.155	12.75
778.331	12.92
778.507	11.89
778.683	11.06
778.86	12.86
779.036	14.68
779.212	13.72
779.388	12.88
779.565	11.48
779.741	12.83
779.917	13.15
780.093	12.7
780.269	11.32
780.445	12.09
780.621	12.55
780.797	12.32
780.974	11.83
781.15	12.21
781.326	11.75
781.502	12.62
781.678	11.58
781.854	12.08
782.03	9.94
782.206	12.52
782.382	10.53
782.558	12.96
782.733	13.37
782.909	13.16
783.085	12.8
783.261	12.62
783.437	10.9
783.613	12.11
783.789	13.48
783.965	12.15
784.14	12.81
784.316	11.38
784.492	11.54
784.668	12.02
784.843	12.36
785.019	12.04
785.195	11.85
785.371	12.88
785.546	12.16
785.722	13.55
785.898	11.9
786.073	12.8
786.249	12.08
786.424	11.04
786.6	11.36
786.776	11.29
786.951	12.64
787.127	14.22
787.302	11.47
787.478	12.35
787.653	11.71
787.829	11.3
788.004	12.37
788.18	11.35
788.355	12.53
788.531	11.31
788.706	13.19
788.881	11.48
789.057	14.17
789.232	11.51
789.408	11.29
789.583	12.29
789.758	11.72
789.934	11.33
790.109	10.37
790.284	14.4
790.459	12.62
790.635	11.64
790.81	12.75
790.985	13.37
791.16	11.84
791.336	12.63
791.511	13.15
791.686	12.54
791.861	12.26
792.036	14.32
792.211	11.8
792.387	12.14
792.562	9.26
792.737	11.3
792.912	11.34
793.087	12.89
793.262	11.25
793.437	12.15
793.612	9.79
793.787	11.39
793.962	12.97
794.137	13.25
794.312	12.68
794.487	12.29
794.662	12.23
794.837	10.23
795.011	11.12
795.186	13.46
795.361	11.68
795.536	10.92
795.711	9.14
795.886	11.11
796.06	9.17
796.235	12.87
796.41	8.84
796.585	12.19
796.76	10.29
796.934	12.18
797.109	11.39
797.284	10.89
797.458	12.06
797.633	12.66
797.808	11.24
797.982	12.22
798.157	14.04
798.332	13.38
798.506	11.6
798.681	11.09
798.855	14.1
799.03	12.81
799.204	11.99
799.379	12.42
799.553	10.63
799.728	7.22
799.902	11.53
800.077	14.36
800.251	12.88
800.426	10.02
800.6	12.98
800.775	11.24
800.949	12.32
801.123	12.01
801.298	12.54
801.472	12.38
801.647	11.58
801.821	8.28
801.995	12.07
802.169	9.77
802.344	10.88
802.518	15.49
802.692	10
802.867	12.45
803.041	9.47
803.215	11.16
803.389	14.16
803.563	11.65
803.737	10.72
803.912	10.86
804.086	12.04
804.26	12.26
804.434	10.59
804.608	11.04
804.782	13.79
804.956	11.41
805.13	12.52
805.304	10.5
805.478	11.78
805.652	15.8
805.826	16.24
806	11.81
806.174	13.43
806.348	13.11
806.522	11.96
806.696	12.37
806.87	12.4
807.044	11.29
807.218	14.23
807.392	15.36
807.566	9.01
807.739	10.46
807.913	7.74
808.087	15.36
808.261	9.8
808.435	10.99
808.608	6.99
808.782	10.57
808.956	9.85
809.13	9.62
809.303	14.01
809.477	13.98
809.651	14.62
809.824	12.73
809.998	10.91
810.172	12.55
810.345	10.71
810.519	8.64
810.692	11.15
810.866	13.09
811.04	11.76
811.213	13.57
811.387	11.69
811.56	12.79
811.734	14.76
811.907	16.38
812.081	9.34
812.254	11.97
812.428	12.72
812.601	11.7
812.774	14.34
812.948	10.39
813.121	15.9
813.295	10.7
813.468	11.93
813.641	7.55
813.815	11.29
813.988	10.71
814.161	12.36
814.335	14.08
814.508	9.4
814.681	7.33
814.854	12.09
815.028	11.57
815.201	12.66
815.374	13.74
815.547	9.94
815.72	11.84
815.894	14.58
816.067	11.31
816.24	11.12
816.413	12.37
816.586	10.01
816.759	13.25
816.932	4.58
817.105	12.95
817.278	11.85
817.452	13.09
817.625	12.78
817.798	14.34
817.971	15.7
818.144	10.39
818.317	15.47
818.49	7.29
818.662	11.22
818.835	10.17
819.008	8.1
819.181	13.68
819.354	9.62
819.527	17.21
819.7	7.72
819.873	10.93
820.046	12.47
820.218	11.21
820.391	11.94
820.564	9.82
820.737	11.23
820.909	15.24
821.082	10.28
821.255	10.77
821.428	13.15
821.6	7.59
821.773	13.97
821.946	11.42
822.118	12.54
822.291	9.06
822.464	8.52
822.636	13.06
822.809	10.54
822.982	10.82
823.154	13.32
823.327	13.34
823.499	12.02
823.672	15.06
823.844	9.36
824.017	11.06
824.189	10.14
824.362	11.2
824.534	12.56
824.707	12.04
824.879	9.54
825.052	10.38
825.224	13.07
825.396	8.96
825.569	12.33
825.741	12.99
825.914	9.61
826.086	11.7
826.258	9.61
826.431	12.51
826.603	11.14
826.775	10.77
826.947	9.39
827.12	16.7
827.292	14.96
827.464	10.41
827.636	10.6
827.809	12.78
827.981	10.79
828.153	7.93
828.325	10.73
828.497	12.87
828.669	11.91
828.842	6.73
829.014	9.56
829.186	13.18
829.358	9.14
829.53	13.31
829.702	13.76
829.874	12.21
830.046	13.92
830.218	14.01
830.39	9.97
830.562	14.24
830.734	15.26
830.906	10.43
831.078	12.26
831.25	10.97
831.422	7.87
831.594	11.14
831.766	12.92
831.937	7.32
832.109	13.46
832.281	11.01
832.453	8.56
832.625	11.24
832.797	9.43
832.968	11.59
833.14	7.9
833.312	10.4
833.484	11.57
833.655	13.93
833.827	9.87
833.999	12.03
834.171	11.59
834.342	13.26
834.514	9.85
834.686	8.8
834.857	9.46
835.029	9.53
835.2	13.66
835.372	8.93
835.544	9.87
835.715	10.06
835.887	11.41
836.058	9.68
836.23	10.78
836.401	9.57
836.573	10.78
836.744	7.97
836.916	13.47
837.087	6.79
837.259	13.29
837.43	8.54
837.602	11
837.773	13.25
837.945	12.81
838.116	10.58
838.287	4.21
838.459	11.71
838.63	11.2
838.801	13.21
838.973	7.52
839.144	10.11
839.315	13.88
839.487	8.43
839.658	14.62
839.829	10.84
840	5.77
840.172	14.76
840.343	9.66
840.514	10
840.685	15.16
840.856	8.01
841.027	12.9
841.199	13.94
841.37	10.01
841.541	11.08
841.712	11.54
841.883	13.83
842.054	13.87
842.225	13.05
842.396	14.53
842.567	8.21
842.738	13.46
842.909	13.07
843.08	7.4
843.251	13.88
843.422	10.45
843.593	11.45
843.764	11.44
843.935	11.65
844.106	8.56
844.277	16.02
844.448	12.06
844.619	12.21
844.79	11.64
844.96	12.79
845.131	11.53
845.302	11.33
845.473	13.86
845.644	6.49
845.814	11.66
845.985	6.67
846.156	12.24
846.327	9.39
846.497	7.93
846.668	10.86
846.839	12.33
847.01	12.64
847.18	8.58
847.351	10.72
847.522	15.1
847.692	9.8
847.863	7.86
848.033	12.02
848.204	13.88
848.375	9.15
848.545	12
848.716	11.67
848.886	8.78
849.057	11.05
849.227	9.84
849.398	8.88
849.568	10.92
849.739	9.24
849.909	6.88
850.08	12.07
850.25	8.66
850.421	6.95
850.591	15.02
850.761	8.33
850.932	11.18
851.102	4.19
851.272	10.65
851.443	9.74
851.613	9.16
851.783	12.44
851.954	8.43
852.124	11.52
852.294	8.36
852.465	11.57
852.635	7.41
852.805	7.3
852.975	7.37
853.145	9.95
853.316	16.84
853.486	10.15
853.656	9.83
853.826	5.65
853.996	10.4
854.166	11.67
854.337	9.74
854.507	10.05
854.677	11.82
854.847	10.18
855.017	5.36
855.187	14.76
855.357	7.37
855.527	4.95
855.697	9
855.867	11.1
856.037	12.28
856.207	10.11
856.377	16.67
856.547	11.39
856.717	11.25
856.887	11.4
857.057	12.25
857.227	9.11
857.397	16.58
857.566	11.97
857.736	7.7
857.906	11.97
858.076	9.47
858.246	9.62
858.416	8.4
858.585	14.88
858.755	9.48
858.925	12.35
859.095	17.76
859.264	17.82
859.434	5.48
859.604	8.89
859.774	9.3
859.943	16.35
860.113	5.64
860.283	12.06
860.452	12.42
860.622	13.18
860.791	12.83
860.961	15.56
861.131	0.68
861.3	17.09
861.47	3.94
861.639	7.02
861.809	11.69
861.978	9.4
862.148	7.93
862.318	9.04
862.487	8.54
862.657	9.1
862.826	9.2
862.995	10.4
863.165	18.25
863.334	3.97
863.504	8.48
863.673	17
863.843	9.51
864.012	17.91
864.181	11.85
864.351	8.94
864.52	0.42
864.689	6.49
864.859	-1
865.028	4.64
865.197	7.06
865.366	10.17
865.536	10.35
865.705	15.09
865.874	4.76
866.043	4.67
866.213	12.23
866.382	5.49
866.551	8.42
866.72	23.6
866.889	11.72
867.059	5.87
867.228	8.43
867.397	4.4
867.566	7.02
867.735	19.64
867.904	16.78
868.073	12.51
868.242	16.61
868.411	7.05
868.58	13.31
868.749	7.67
868.918	10.36
869.087	7.13
869.256	-1.12
869.425	16.5
869.594	13.46
869.763	12.53
869.932	23.18
870.101	3.25
870.27	8.62
870.439	9.16
870.608	6.71
870.777	11.48
870.945	11.02
871.114	13.21
871.283	14.12
871.452	14.44
871.621	11.36
871.789	10.52
871.958	13.36
872.127	4.1
872.296	5.54
872.464	13.5
872.633	17.12
872.802	18.25
872.971	7.97
873.139	10.71
873.308	5.19
873.477	7.94
873.645	9.08
873.814	4.32
873.983	6.46
874.151	7.02
874.32	11.49
874.488	11.15
874.657	12.48
874.826	21.59
874.994	21.02
875.163	6.68
875.331	17.11
875.5	11.51
875.668	12.67
875.837	14.68
876.005	7.99
876.174	-0.25
876.342	11.12
876.51	13.04
876.679	18.69
876.847	14.05
877.016	0.29
877.184	10.78
877.352	5.35
877.521	8.99
877.689	16.13
877.857	11.97
878.026	12.51
878.194	13.54
878.362	7.56
878.531	-1.22
878.699	9.87
878.867	11.45
879.036	10.85
879.204	18.47
879.372	-0.25
879.54	-1.02
879.708	18.05
879.877	8.64
880.045	12.36
880.213	16.78
880.381	19.11
880.549	14.37
880.717	8.59
880.885	19.24
881.054	-2.34
881.222	8.17
881.39	4.79
881.558	15.39
881.726	-1.26
881.894	14.67
882.062	14.03
882.23	17.71
882.398	10.34
882.566	2.76
882.734	3.82
882.902	14.43
883.07	15.73
883.238	10.56
883.406	5.59
883.574	15.03
883.741	23.72
883.909	12.96
884.077	15.24
884.245	15.97
884.413	10.15
884.581	-2.44
884.749	13.87
884.916	12.76
885.084	10.6
885.252	25.54
885.42	17.59
885.587	19.83
885.755	16.56
885.923	12.12
886.091	3.18
886.258	5
886.426	0.03
886.594	12.47
886.761	4.43
886.929	13.53
887.097	10.16
887.264	16.09
887.432	16.05
887.6	1.81
887.767	13.81
887.935	7.76
888.102	8.49
888.27	6.35
888.438	16.62
888.605	-1.38
888.773	20.84
888.94	14.67
889.108	7.91
889.275	16.84
889.443	11.78
889.61	10.39
889.778	5.11
889.945	4.43
890.112	15.45
890.28	17.24
890.447	12.85
890.615	14.02
890.782	2.84
890.949	9.11
891.117	0.4
891.284	15.2
891.452	-2.39
891.619	15.54
891.786	-2.59
891.953	21.59
892.121	28.57
892.288	14.64
892.455	22
892.623	1.46
892.79	9.45
892.957	26.62
893.124	21.87
893.291	16.2
893.459	16.23
893.626	9.62
893.793	6.82
893.96	7.19
894.127	11.92
894.294	12.03
894.461	0.8
894.629	12.85
894.796	5.37
894.963	-0.84
895.13	22.26
895.297	6.95
895.464	14.34
895.631	11.04
895.798	23.75
895.965	2.84
896.132	3.71
896.299	9.81
896.466	17.04
896.633	22.75
896.8	15.22
896.967	14.12
897.134	13.47
897.301	12.35
897.467	29.15
897.634	16.85
897.801	12.52
897.968	8.07
898.135	20.24
898.302	1.77
898.469	5.08
898.635	11.41
898.802	10.73
898.969	17.46
899.136	12.64
899.303	13.32
