Data from x0_Transmission_15-10-52-322.txt Node
Date: Thu May 02 15:10:52 EDT 2019
User: dh1006
Spectrometer: USB4E01358
Autoset integration time: false
Trigger mode: 4
Integration Time (sec): 8.000000E-2
Scans to average: 1
Electric dark correction enabled: true
Nonlinearity correction enabled: false
Boxcar width: 0
Stray light correction enabled: false
XAxis mode: Wavelengths
Stop averaging: false
Number of Pixels in Spectrum: 3648
>>>>>Begin Spectral Data<<<<<
176.727	540
176.966	540
177.205	540
177.444	55.06
177.683	138.73
177.922	49.18
178.161	53.7
178.4	267
178.638	-500
178.877	46.38
179.116	61.05
179.355	563.64
179.593	-49.4
179.832	112.57
180.071	184.21
180.309	3688.89
180.548	95.07
180.786	123.68
181.025	150
181.263	2.07
181.502	46.22
181.74	-39.09
181.979	-79.05
182.217	-214.45
182.456	67.32
182.694	6.01
182.932	41.67
183.17	24.73
183.409	154.42
183.647	43.44
183.885	280
184.123	186.25
184.361	238.85
184.6	64.21
184.838	5277.78
185.076	521.43
185.314	-29.85
185.552	29.07
185.79	22.09
186.028	110.04
186.266	-146.74
186.503	-89.47
186.741	43
186.979	132.08
187.217	-5700
187.455	24.37
187.693	75.82
187.93	9.21
188.168	-202.08
188.406	19.1
188.643	28.77
188.881	-330.43
189.119	-31.01
189.356	-680.56
189.594	88.55
189.831	209.09
190.069	11.55
190.306	-13.98
190.543	31.23
190.781	152.59
191.018	58.05
191.256	54.1
191.493	-257.93
191.73	-51.27
191.967	-314.29
192.205	-167.93
192.442	-59.21
192.679	-7325
192.916	-280.63
193.153	151.63
193.39	-1521.43
193.628	153.94
193.865	-206.14
194.102	-252.38
194.339	51.52
194.576	2.17
194.813	4.89
195.049	101.25
195.286	177.46
195.523	-85.66
195.76	-36.26
195.997	-185.48
196.234	-47.83
196.47	-148.56
196.707	-82.84
196.944	-27.27
197.18	-2.32
197.417	63.67
197.654	67.54
197.89	41.03
198.127	56.73
198.363	-21.84
198.6	7.79
198.836	48.89
199.073	39.56
199.309	62.82
199.546	-22.75
199.782	-89.15
200.018	-933.33
200.255	51.57
200.491	-1044.19
200.727	-21.05
200.963	36.08
201.199	-142.63
201.436	120.79
201.672	-30.28
201.908	80.58
202.144	-29.64
202.38	-75.79
202.616	100.37
202.852	49.17
203.088	10.04
203.324	-322.11
203.56	-500
203.796	70.63
204.032	-6.76
204.268	502.08
204.503	322.66
204.739	153.76
204.975	-17.69
205.211	147.11
205.446	87.01
205.682	26.63
205.918	406.98
206.153	-14.61
206.389	207.78
206.625	47.15
206.86	85
207.096	-231.88
207.331	26.34
207.567	-227.42
207.802	-199.32
208.037	3.04
208.273	59.11
208.508	-331.48
208.744	-47.66
208.979	74.33
209.214	-6350
209.449	124.19
209.685	-266.83
209.92	-221.97
210.155	-166.81
210.39	-64.23
210.625	-175
210.86	-168.53
211.095	315.69
211.33	5.74
211.565	-42.59
211.8	456.32
212.035	252.07
212.27	50.44
212.505	94.68
212.74	-51.27
212.975	3518.18
213.21	-19.63
213.444	-164.13
213.679	-51.12
213.914	40.84
214.149	1.07
214.383	30.83
214.618	30.83
214.853	-9.75
215.087	-17.74
215.322	187.54
215.556	-94.97
215.791	920.93
216.025	37.19
216.26	-89.06
216.494	694.59
216.729	-187.04
216.963	-126.48
217.197	24.16
217.432	9.89
217.666	-293.9
217.9	4.01
218.135	29.56
218.369	5711.11
218.603	79.94
218.837	-18.59
219.071	-27.73
219.306	114.21
219.54	140.97
219.774	73.16
220.008	231.74
220.242	-725.62
220.476	-1800
220.71	124.58
220.944	-7.62
221.178	-706.1
221.411	-127.93
221.645	-165.62
221.879	54.93
222.113	-1410
222.347	151.83
222.58	-36.65
222.814	-13.28
223.048	-439.81
223.281	-29.13
223.515	477.88
223.749	-134.38
223.982	-38.59
224.216	904
224.449	150
224.683	-87.96
224.916	-331.48
225.15	50.76
225.383	332
225.617	-25.96
225.85	-14.9
226.083	161.3
226.317	-3.64
226.55	101.01
226.783	113.89
227.016	-64.83
227.25	242.86
227.483	-500
227.716	16.44
227.949	-45.29
228.182	47.15
228.415	-137.97
228.648	-264.38
228.881	-17.53
229.114	-31.27
229.347	54.78
229.58	982
229.813	124.84
230.046	130.3
230.279	-87.56
230.512	-13.26
230.745	3.66
230.977	12.33
231.21	39.89
231.443	-4.62
231.675	57.14
231.908	-1111.76
232.141	87.9
232.373	-431.58
232.606	-199.32
232.839	-69.28
233.071	-268.89
233.304	-268.56
233.536	-458.95
233.769	446.54
234.001	50.48
234.233	-355.56
234.466	-1.09
234.698	513.24
234.93	-65.17
235.163	34.25
235.395	-288.37
235.627	-37.12
235.86	-481.16
236.092	209.39
236.324	-42.81
236.556	16.19
236.788	63.86
237.02	38.31
237.252	108.97
237.484	1.27
237.716	-716.67
237.948	139.27
238.18	-188.43
238.412	244.72
238.644	383.59
238.876	-207.5
239.108	-146.2
239.34	736.07
239.571	-97.08
239.803	46.62
240.035	143.39
240.267	147.44
240.498	2100
240.73	650.82
240.962	61.81
241.193	-91.7
241.425	13.1
241.656	79.86
241.888	36.96
242.119	13.16
242.351	-802.33
242.582	137.74
242.814	-134.71
243.045	39.41
243.277	23.88
243.508	413.51
243.739	-161.85
243.971	79.62
244.202	17.42
244.433	-169.36
244.664	-10.2
244.896	-72.15
245.127	-7.28
245.358	-337.5
245.589	-236.99
245.82	121.9
246.051	-10.31
246.282	88.05
246.513	383.71
246.744	12.12
246.975	-373.17
247.206	-49.5
247.437	16.34
247.668	-199.07
247.899	11.96
248.129	11.88
248.36	-166.74
248.591	-68.61
248.822	-8.75
249.052	-14.93
249.283	-11.41
249.514	52.07
249.744	-68.45
249.975	67.72
250.206	35.7
250.436	-132.52
250.667	332.37
250.897	-60.41
251.128	-36.7
251.358	360.81
251.589	-37.78
251.819	75.71
252.049	-40.07
252.28	34.18
252.51	-7.48
252.74	6.27
252.971	7300
253.201	54.97
253.431	13.49
253.661	-58.49
253.891	52.5
254.121	-9.57
254.352	141.33
254.582	1245.71
254.812	95.62
255.042	-55.78
255.272	-117.85
255.502	-26.63
255.732	2966.67
255.962	-95.08
256.192	-23.86
256.421	-32.34
256.651	21.75
256.881	-141.78
257.111	49.68
257.341	-25.64
257.57	111.09
257.8	64.53
258.03	-64.68
258.259	-20.86
258.489	-7.24
258.719	49.51
258.948	-9.66
259.178	-4.62
259.407	40.71
259.637	69.52
259.866	101.25
260.096	-29.65
260.325	-161.85
260.555	-19.33
260.784	43.32
261.013	-569.64
261.243	-83.61
261.472	729.73
261.701	-130.22
261.931	-165.15
262.16	205.43
262.389	-100.76
262.618	21.97
262.847	-1.41
263.076	17.8
263.305	8.4
263.535	-83.02
263.764	11.96
263.993	43.33
264.222	8.24
264.451	-56.82
264.679	45.03
264.908	-19.82
265.137	-4.05
265.366	92.04
265.595	1.75
265.824	88.38
266.053	41.36
266.281	-387.28
266.51	-77.66
266.739	17.94
266.967	-34.06
267.196	-3100
267.425	-34.77
267.653	-8.78
267.882	0.88
268.11	325.4
268.339	1.69
268.567	-254.72
268.796	84.45
269.024	289.29
269.253	-111.02
269.481	54.78
269.709	72
269.938	-43.86
270.166	-34.96
270.394	-25.84
270.623	-18.23
270.851	-74.27
271.079	10.09
271.307	7.85
271.535	313.91
271.764	-12.5
271.992	302.13
272.22	-19.5
272.448	-74.27
272.676	47.37
272.904	-29.31
273.132	0.98
273.36	-69.43
273.588	194.93
273.816	12.91
274.043	-88.68
274.271	113.42
274.499	25.78
274.727	-451.85
274.955	34.65
275.182	-31.26
275.41	-213.44
275.638	49.1
275.866	393.75
276.093	70.18
276.321	-273.11
276.548	26.15
276.776	106.1
277.003	72.35
277.231	1282.86
277.458	-7.19
277.686	-264.38
277.913	-207.5
278.141	4.53
278.368	43.64
278.595	-6.63
278.823	-167.07
279.05	-138.63
279.277	-32.29
279.505	-74.14
279.732	-209.96
279.959	651.43
280.186	-24.08
280.413	-19.13
280.641	138.73
280.868	-48.39
281.095	89.92
281.322	-1973.33
281.549	-74.5
281.776	-36.73
282.003	20
282.23	-132.41
282.457	11.81
282.683	-2.29
282.91	-272.5
283.137	-39.66
283.364	681.82
283.591	-95.8
283.818	-1150
284.044	-106.98
284.271	82.64
284.498	-49.5
284.724	36.51
284.951	-2.59
285.178	17.29
285.404	22.95
285.631	-8.38
285.857	16.84
286.084	-95.28
286.31	-69.82
286.537	55.43
286.763	45.94
286.99	46.5
287.216	7300
287.442	-75.51
287.669	40.67
287.895	-32.23
288.121	323.02
288.347	-63.03
288.574	11.48
288.8	61.86
289.026	-56.82
289.252	-36.63
289.478	-296.27
289.704	-0.81
289.931	45.81
290.157	-115.08
290.383	24.15
290.609	32.59
290.835	51.71
291.06	-87.56
291.286	-134.91
291.512	-109.25
291.738	87.1
291.964	-26.12
292.19	-205.04
292.416	-178.49
292.641	33.42
292.867	-68.8
293.093	800
293.319	68.31
293.544	-12.5
293.77	59.14
293.995	27.19
294.221	-82.14
294.447	-15.83
294.672	-35.71
294.898	10.18
295.123	-94.16
295.349	1.9
295.574	-341.46
295.799	-22.63
296.025	-22.02
296.25	-37.29
296.476	85
296.701	-37.57
296.926	-22.55
297.151	-224.24
297.377	168.57
297.602	-47.47
297.827	102.66
298.052	-110
298.277	96.66
298.502	13.19
298.727	103.94
298.953	-13.39
299.178	35.63
299.403	35.68
299.628	-11.71
299.852	-24.79
300.077	-1264.71
300.302	-26.15
300.527	-18.27
300.752	94.92
300.977	566
301.202	1055.74
301.426	-8.66
301.651	-54.29
301.876	610.42
302.101	-7.97
302.325	-2.39
302.55	-25.99
302.775	-30.16
302.999	19.62
303.224	-12.5
303.448	27.43
303.673	-500
303.897	100.34
304.122	17.32
304.346	102.25
304.571	-24.92
304.795	-278.91
305.019	-65.95
305.244	54.93
305.468	150
305.692	146.06
305.917	-102.48
306.141	-33.57
306.365	54.1
306.589	-45
306.813	-0.99
307.038	-14.05
307.262	-113.86
307.486	106.67
307.71	10550
307.934	70.23
308.158	-199.42
308.382	-10.31
308.606	-108.66
308.83	3.37
309.054	-205.33
309.278	17.52
309.502	80.36
309.725	-304.62
309.949	-4.02
310.173	72.8
310.397	23.32
310.62	159.7
310.844	-87
311.068	-85.63
311.292	7.52
311.515	-10.88
311.739	150
311.962	41.97
312.186	-25.32
312.41	-24.27
312.633	-34.53
312.857	19.08
313.08	-235.19
313.303	-67.58
313.527	39.33
313.75	6.27
313.974	-90.88
314.197	-2.53
314.42	-28.64
314.644	32.53
314.867	10.92
315.09	-40.92
315.313	12.96
315.536	-17.94
315.76	-163.79
315.983	-59.21
316.206	-34.36
316.429	-4.37
316.652	-274.67
316.875	2.61
317.098	-34.57
317.321	0.88
317.544	-353.75
317.767	26.74
317.99	-4.62
318.213	-17.77
318.436	-100.95
318.658	-69.43
318.881	-152.97
319.104	-4.76
319.327	44.65
319.55	178.49
319.772	20.75
319.995	713.33
320.218	44.75
320.44	387.3
320.663	-31.47
320.885	-44.67
321.108	36.48
321.331	-19.18
321.553	-2.22
321.776	-1475
321.998	38.73
322.22	-117.65
322.443	36.74
322.665	-49.33
322.888	41.67
323.11	139.61
323.332	19.01
323.555	341.18
323.777	-146.49
323.999	-26.29
324.221	1.24
324.443	-69.66
324.666	-28.09
324.888	28.02
325.11	-145.45
325.332	-166.83
325.554	-279.25
325.776	24.29
325.998	74.42
326.22	-330.43
326.442	-34.53
326.664	-37.95
326.886	-52.36
327.108	-92.07
327.33	-199.56
327.551	20.5
327.773	-5.26
327.995	-62.78
328.217	-31.15
328.439	-24.04
328.66	31.01
328.882	-285.12
329.104	10.71
329.325	-26.39
329.547	39.4
329.769	27.72
329.99	34.41
330.212	565.57
330.433	1.12
330.655	67.86
330.876	4.67
331.098	906.56
331.319	3.4
331.54	20.72
331.762	-26.43
331.983	35.14
332.204	13
332.426	-39.26
332.647	157.3
332.868	-1.09
333.089	-231.03
333.311	-44.38
333.532	7.48
333.753	-1626.67
333.974	16.18
334.195	-143.21
334.416	-34.3
334.637	87.1
334.858	27.75
335.079	-183.55
335.3	-112.08
335.521	-134.17
335.742	-518.84
335.963	43.32
336.184	103.46
336.405	41.45
336.626	50.32
336.846	-121.52
337.067	35.48
337.288	39.2
337.509	-1323.33
337.729	38.9
337.95	-1376.74
338.171	-36.18
338.391	-109.15
338.612	40.8
338.833	1964.58
339.053	-21.88
339.274	-7.81
339.494	-33.49
339.715	129.37
339.935	-133.86
340.156	48.09
340.376	-16.28
340.596	55.43
340.817	540
341.037	38.92
341.257	59.11
341.478	29.52
341.698	-26.63
341.918	-361.88
342.138	-26.15
342.359	38.17
342.579	-6.9
342.799	-106.06
343.019	28.46
343.239	4.16
343.459	83.9
343.679	-33.53
343.899	63.33
344.119	26.52
344.339	-179.11
344.559	69.75
344.779	-90.3
344.999	-54.42
345.219	30.46
345.439	-93.96
345.658	5422.22
345.878	827.08
346.098	-35.51
346.318	-28.36
346.537	3636.36
346.757	254.84
346.977	-1.14
347.196	26.07
347.416	41.03
347.636	28.77
347.855	-73.95
348.075	-96.21
348.294	-101.88
348.514	-259.26
348.733	60.18
348.953	-144.21
349.172	-26.22
349.392	-70.08
349.611	85.55
349.83	-47.83
350.05	-78.38
350.269	-30.45
350.488	-7.35
350.707	785.06
350.927	47.03
351.146	33.39
351.365	-34.18
351.584	12.12
351.803	72.85
352.023	8.7
352.242	81.11
352.461	-89.78
352.68	43.82
352.899	-45
353.118	-211.55
353.337	105.68
353.556	-165.5
353.775	14.58
353.993	-137.06
354.212	44.33
354.431	-16.86
354.65	66.58
354.869	25.89
355.088	20
355.306	78.39
355.525	-28.61
355.744	-4.28
355.962	163.98
356.181	272.97
356.4	58.77
356.618	30.57
356.837	-143.65
357.055	-59.56
357.274	52.03
357.492	-512.04
357.711	14.88
357.929	7.48
358.148	-251.56
358.366	150
358.585	-54.49
358.803	-70.96
359.021	558.41
359.24	-13.7
359.458	-223.1
359.676	20.76
359.894	13.16
360.113	-9.02
360.331	0.69
360.549	1134.29
360.767	16.47
360.985	-393.28
361.203	-18.7
361.421	32.99
361.639	-9.04
361.857	36.47
362.075	-16.63
362.293	41.03
362.511	-216.14
362.729	-58.42
362.947	-58.21
363.165	-231.88
363.383	4.48
363.601	2.67
363.819	-11.68
364.036	-12.22
364.254	120.3
364.472	-50.76
364.689	-42.25
364.907	-16.02
365.125	3.75
365.342	-394.8
365.56	64.25
365.778	4.37
365.995	-386.25
366.213	143.01
366.43	-55.92
366.648	-21.53
366.865	12.35
367.083	61.1
367.3	-56.82
367.517	56.44
367.735	-123.86
367.952	-19.75
368.17	20
368.387	88.26
368.604	26.4
368.821	55.86
369.039	-4.76
369.256	19.42
369.473	10.46
369.69	-199.71
369.907	-10900
370.124	859.09
370.341	60.78
370.558	28.04
370.776	4.21
370.993	33.39
371.21	52.96
371.426	-109.42
371.643	2.2
371.86	32.51
372.077	-56.21
372.294	25.64
372.511	16.11
372.728	-67.32
372.945	2.79
373.161	35.71
373.378	-100.88
373.595	-44.33
373.811	29.01
374.028	35.01
374.245	0.79
374.461	-175
374.678	88.53
374.895	-16.32
375.111	64.62
375.328	35.95
375.544	1239.19
375.761	10.21
375.977	40.17
376.194	12.37
376.41	28.36
376.626	26.98
376.843	29.68
377.059	41.87
377.275	24.79
377.492	16.55
377.708	-52.98
377.924	-3.53
378.14	-20.15
378.357	83.06
378.573	-166.77
378.789	-5.32
379.005	13.53
379.221	-60.36
379.437	-28.63
379.653	-40.8
379.869	39.22
380.085	-56.66
380.301	27.39
380.517	-5.68
380.733	8.61
380.949	-40.37
381.165	-18.57
381.381	-23.71
381.597	31.58
381.813	5.44
382.028	-8.85
382.244	-11.54
382.46	-41.3
382.676	-11.67
382.891	-68.88
383.107	-12.88
383.323	32.88
383.538	-111.27
383.754	-30.45
383.969	32.27
384.185	28.3
384.4	-1.6
384.616	-64.38
384.831	37.46
385.047	-91.53
385.262	-10.75
385.478	20
385.693	-18.23
385.909	16.41
386.124	-13.94
386.339	-4.68
386.554	16.05
386.77	-64.77
386.985	-16.81
387.2	-22.76
387.415	13.38
387.631	42.9
387.846	-3.12
388.061	17.36
388.276	-67.94
388.491	30.99
388.706	-34.84
388.921	15.66
389.136	28.4
389.351	30.68
389.566	-37.22
389.781	88.51
389.996	56.28
390.211	5.08
390.426	-13.89
390.641	24.36
390.855	7.29
391.07	22.38
391.285	-10.49
391.5	-1.78
391.714	21
391.929	10.46
392.144	12.04
392.358	-13.5
392.573	-4.68
392.788	-8.69
393.002	-14.73
393.217	-1.93
393.431	9.17
393.646	-1.75
393.86	-13.19
394.075	7.33
394.289	23.86
394.504	17.77
394.718	20.29
394.933	-5.91
395.147	12.46
395.361	17.16
395.576	7.58
395.79	4.8
396.004	4.87
396.218	11.48
396.432	30.59
396.647	19.75
396.861	12.63
397.075	12.41
397.289	8.76
397.503	19.06
397.717	5.67
397.931	10.41
398.145	-4.14
398.359	8.76
398.573	4.54
398.787	8.56
399.001	14.53
399.215	18.99
399.429	15.72
399.643	5.36
399.857	5.43
400.07	17.79
400.284	16.4
400.498	10.59
400.712	15.24
400.925	19.87
401.139	21.29
401.353	14.85
401.566	21.55
401.78	11
401.994	12.18
402.207	14.18
402.421	14.91
402.634	1.9
402.848	11.8
403.061	1.8
403.275	15.56
403.488	14.58
403.702	19.4
403.915	14.47
404.128	11.08
404.342	12.99
404.555	-1.2
404.768	21.18
404.982	8.34
405.195	7.8
405.408	8.16
405.621	13.16
405.835	16.54
406.048	17.48
406.261	17.74
406.474	19.61
406.687	6.48
406.9	16.14
407.113	13.67
407.326	13.9
407.539	11.86
407.752	10.64
407.965	15
408.178	18.23
408.391	13.51
408.604	19.35
408.817	11.24
409.029	11.14
409.242	13.68
409.455	13.63
409.668	12.51
409.881	16.27
410.093	10.71
410.306	14.07
410.519	12.9
410.731	11.2
410.944	15.87
411.157	15.14
411.369	9.58
411.582	12.44
411.794	10.51
412.007	12.88
412.219	15.04
412.432	15.72
412.644	13.41
412.857	12.04
413.069	13.62
413.281	8.47
413.494	15.92
413.706	17.25
413.918	11.69
414.131	13.56
414.343	14.2
414.555	14.44
414.767	11.96
414.979	13.88
415.192	7.97
415.404	10.44
415.616	9
415.828	11.34
416.04	11.51
416.252	12.7
416.464	9.62
416.676	12.73
416.888	12.48
417.1	7.14
417.312	10.23
417.524	11.8
417.736	6.39
417.948	10.71
418.159	11.38
418.371	11.34
418.583	4.41
418.795	10.44
419.007	12.36
419.218	7.89
419.43	10.27
419.642	5.54
419.853	7.76
420.065	7.45
420.276	8.94
420.488	7.75
420.7	7.64
420.911	8.65
421.123	6.65
421.334	5.87
421.546	9.48
421.757	7.49
421.969	8
422.18	8.84
422.391	8.02
422.603	8.2
422.814	9.33
423.025	7.38
423.237	10.26
423.448	6.98
423.659	8.44
423.87	4.49
424.082	6.99
424.293	4.56
424.504	9.49
424.715	8.64
424.926	4.92
425.137	4.52
425.348	6.82
425.559	6.35
425.77	7.74
425.981	6.22
426.192	7.89
426.403	4.99
426.614	3.74
426.825	6.67
427.036	8.24
427.247	5.21
427.458	5.87
427.668	4.75
427.879	5.91
428.09	5.24
428.301	5.03
428.511	2.45
428.722	3.36
428.933	4.81
429.143	3.03
429.354	4.21
429.565	5.54
429.775	4.42
429.986	4.29
430.196	3.05
430.407	1.4
430.617	3.61
430.828	2.58
431.038	3.82
431.249	4
431.459	1.85
431.669	4.69
431.88	4.69
432.09	4.89
432.3	5.8
432.511	2.2
432.721	3.79
432.931	3.6
433.141	2.41
433.351	3.93
433.562	2.25
433.772	5.97
433.982	3.81
434.192	5.22
434.402	4.91
434.612	3.29
434.822	-0.03
435.032	1.95
435.242	3.74
435.452	2.07
435.662	2.35
435.872	3.01
436.082	4.11
436.292	2.89
436.502	3.31
436.711	1.18
436.921	3.6
437.131	3.49
437.341	0.93
437.551	3.19
437.76	5.27
437.97	2
438.18	1.3
438.389	3
438.599	3.41
438.808	-0.63
439.018	2.97
439.228	3.21
439.437	3.62
439.647	2.97
439.856	2
440.066	1.9
440.275	2.12
440.484	6.54
440.694	3.82
440.903	1.6
441.113	2.01
441.322	1.95
441.531	1.3
441.741	1.52
441.95	3.35
442.159	2.15
442.368	2.19
442.577	1.9
442.787	0.34
442.996	0.86
443.205	1.89
443.414	2.41
443.623	4.16
443.832	2.91
444.041	2.17
444.25	5.19
444.459	3.51
444.668	1.99
444.877	1.76
445.086	1.71
445.295	1.54
445.504	1.16
445.713	3.81
445.922	-1.51
446.13	1.95
446.339	-0.24
446.548	1.72
446.757	2.61
446.965	-2.31
447.174	-1.78
447.383	1.71
447.591	0.23
447.8	0.7
448.009	3.57
448.217	2.45
448.426	1.34
448.634	3.37
448.843	0.55
449.051	1.56
449.26	1.87
449.468	4.41
449.677	4.53
449.885	1.02
450.093	0.86
450.302	1.42
450.51	1.03
450.719	-0.72
450.927	0.96
451.135	1.36
451.343	1.2
451.552	3.8
451.76	1.74
451.968	1.81
452.176	0.37
452.384	1.12
452.592	1.48
452.8	3.14
453.009	3.33
453.217	3.75
453.425	1.44
453.633	0.56
453.841	0.72
454.049	1.11
454.257	1.16
454.464	4.4
454.672	4.36
454.88	0.16
455.088	1.15
455.296	1.88
455.504	4.36
455.711	3.11
455.919	-0.22
456.127	3.04
456.335	3.28
456.542	0.68
456.75	3.69
456.958	0.28
457.165	1.62
457.373	1.49
457.581	-1.22
457.788	-3.87
457.996	0.63
458.203	1.98
458.411	1.86
458.618	1.48
458.826	1.56
459.033	4.47
459.24	0.43
459.448	1.53
459.655	0.51
459.863	2.51
460.07	2.77
460.277	-1.66
460.484	2.8
460.692	2.76
460.899	-0.52
461.106	1.31
461.313	1.65
461.52	0.03
461.728	2.11
461.935	-0.43
462.142	-0.22
462.349	1.95
462.556	-0.16
462.763	1.2
462.97	-0.96
463.177	4.47
463.384	1.59
463.591	0.54
463.798	2.83
464.005	2.04
464.212	3.23
464.418	0.78
464.625	4.04
464.832	1.85
465.039	-1.32
465.246	3.26
465.452	2.42
465.659	3.27
465.866	2.08
466.072	0.32
466.279	2.43
466.486	1.76
466.692	2.47
466.899	2.26
467.105	-0.32
467.312	1.95
467.519	2.28
467.725	0.71
467.931	0.61
468.138	-0.27
468.344	0.88
468.551	1.2
468.757	0.53
468.964	3.91
469.17	-0.26
469.376	1.76
469.583	2.09
469.789	1.39
469.995	1.18
470.201	6.54
470.408	1.44
470.614	3.79
470.82	-0.74
471.026	-1.57
471.232	0.49
471.438	0.6
471.644	3.76
471.85	1.69
472.056	1.5
472.262	3.12
472.468	0.5
472.674	1.16
472.88	3.83
473.086	0.52
473.292	2.35
473.498	0.02
473.704	1.2
473.91	3.61
474.116	1.45
474.321	2.28
474.527	1.04
474.733	0.99
474.939	2.26
475.144	2.53
475.35	1.93
475.556	0.74
475.761	2.5
475.967	1.31
476.173	1.34
476.378	4.31
476.584	2.5
476.789	2.02
476.995	2.89
477.2	1.96
477.406	1.56
477.611	1.28
477.817	1.2
478.022	0.76
478.227	1.99
478.433	2.49
478.638	1.36
478.843	3.45
479.049	2.93
479.254	1.5
479.459	0.98
479.664	2.07
479.87	3.42
480.075	1.88
480.28	3.4
480.485	3.48
480.69	3.05
480.895	1.27
481.1	2.74
481.306	3.77
481.511	3.68
481.716	4.13
481.921	2.48
482.126	3.33
482.33	2
482.535	0.89
482.74	2.14
482.945	3.23
483.15	2.18
483.355	2.55
483.56	1.65
483.765	1.98
483.969	2.89
484.174	4.6
484.379	2.53
484.583	2.53
484.788	2.09
484.993	3.14
485.197	4.36
485.402	3.58
485.607	2.98
485.811	2.72
486.016	4.75
486.22	3.77
486.425	3.14
486.629	3.56
486.834	3.77
487.038	4.81
487.243	3.57
487.447	3.03
487.652	4.68
487.856	3.95
488.06	3.46
488.265	3.19
488.469	3.54
488.673	3.16
488.877	3.45
489.082	3.49
489.286	3.85
489.49	4.07
489.694	3.41
489.898	4.1
490.102	3.83
490.307	3.18
490.511	3.68
490.715	4.53
490.919	4.35
491.123	3.45
491.327	4.49
491.531	3.77
491.735	5.61
491.939	3.86
492.143	4.8
492.346	4.26
492.55	4.59
492.754	4.4
492.958	5.59
493.162	4.32
493.366	4.93
493.569	4.85
493.773	4.02
493.977	5.42
494.18	4.75
494.384	5.1
494.588	5.78
494.791	5.09
494.995	5.58
495.199	6.85
495.402	5.93
495.606	4.91
495.809	6.76
496.013	4.98
496.216	5.22
496.42	5.63
496.623	4.69
496.827	6.65
497.03	6.98
497.233	6.29
497.437	5.49
497.64	6.21
497.843	7.08
498.047	7.4
498.25	6.92
498.453	7.13
498.656	6.24
498.86	8.18
499.063	7.47
499.266	6.68
499.469	7.61
499.672	8.78
499.875	7.63
500.078	7.42
500.281	8.35
500.484	7.71
500.687	7.59
500.89	8.68
501.093	8.67
501.296	9.94
501.499	8.55
501.702	9.73
501.905	9.74
502.108	10.67
502.311	9.32
502.514	9.04
502.716	10.38
502.919	10.02
503.122	9.28
503.325	10.82
503.527	10.86
503.73	11.93
503.933	10.75
504.135	11.24
504.338	11.36
504.541	12.02
504.743	11.26
504.946	11.4
505.148	11.77
505.351	11.87
505.553	11.57
505.756	12.31
505.958	13.46
506.161	12.96
506.363	13.59
506.565	12.62
506.768	12.61
506.97	12.89
507.172	12.51
507.375	13.3
507.577	12.72
507.779	13.63
507.982	13.74
508.184	13.22
508.386	13.95
508.588	13.47
508.79	14.09
508.993	15.2
509.195	14.98
509.397	14.6
509.599	15.75
509.801	14.45
510.003	14.57
510.205	15.73
510.407	15.11
510.609	15.6
510.811	15.41
511.013	15.24
511.215	15.43
511.417	15.49
511.618	15.32
511.82	15.7
512.022	15.23
512.224	15.52
512.426	14.96
512.627	14.91
512.829	16.27
513.031	15.21
513.233	15.56
513.434	14.59
513.636	15.38
513.838	15.58
514.039	15.64
514.241	15.36
514.442	15.53
514.644	15.52
514.845	14.67
515.047	15.09
515.248	14.29
515.45	15.48
515.651	13.68
515.853	14.31
516.054	14.22
516.256	13.6
516.457	14.35
516.658	13.62
516.86	13.87
517.061	13.91
517.262	14.11
517.463	12.95
517.665	13.79
517.866	13.11
518.067	13.01
518.268	13.31
518.469	12.79
518.67	12.77
518.872	11.99
519.073	13.01
519.274	12.1
519.475	12.57
519.676	11.34
519.877	11.3
520.078	12.13
520.279	11.22
520.48	11.04
520.681	11.08
520.881	11.05
521.082	10.79
521.283	10.62
521.484	10.87
521.685	10.72
521.886	10.09
522.086	10.69
522.287	9.85
522.488	10.57
522.689	10.54
522.889	10.09
523.09	9.53
523.291	9.14
523.491	9.21
523.692	9.4
523.892	8.68
524.093	9.21
524.294	8.91
524.494	8.24
524.695	8.73
524.895	8.74
525.096	8.7
525.296	8.23
525.496	8.45
525.697	8.17
525.897	7.91
526.098	7.8
526.298	7.7
526.498	7.81
526.699	7.05
526.899	7.72
527.099	6.88
527.299	7.09
527.499	6.9
527.7	7.02
527.9	7.16
528.1	6.77
528.3	6.84
528.5	6.66
528.7	6.08
528.9	6.42
529.1	6.41
529.3	6.24
529.5	6.13
529.7	5.78
529.9	6.53
530.1	6.33
530.3	5.6
530.5	5.6
530.7	5.76
530.9	6.06
531.1	6.17
531.3	5.3
531.499	5.4
531.699	5.31
531.899	4.89
532.099	5.6
532.298	4.99
532.498	5.43
532.698	4.97
532.897	5.24
533.097	5.09
533.297	4.77
533.496	4.95
533.696	4.82
533.895	4.69
534.095	5.05
534.294	4.74
534.494	4.61
534.693	4.89
534.893	4.64
535.092	4.28
535.292	4.58
535.491	4.18
535.69	4.32
535.89	4.07
536.089	4.25
536.288	4.26
536.488	3.86
536.687	4.21
536.886	3.89
537.085	4.12
537.285	3.94
537.484	4.02
537.683	3.64
537.882	3.61
538.081	3.7
538.28	3.75
538.479	3.47
538.678	3.28
538.877	3.74
539.076	3.88
539.275	3.59
539.474	3.69
539.673	3.56
539.872	2.9
540.071	3.88
540.27	3.65
540.469	3.77
540.668	3.58
540.867	3.48
541.065	3.37
541.264	3.29
541.463	2.89
541.662	2.81
541.861	3.06
542.059	3.14
542.258	2.95
542.457	3.43
542.655	2.76
542.854	3.16
543.052	3.06
543.251	2.66
543.45	2.64
543.648	3.37
543.847	3.01
544.045	2.36
544.244	2.71
544.442	3.05
544.641	2.68
544.839	2.75
545.037	3.2
545.236	2.62
545.434	2.48
545.632	2.58
545.831	3.01
546.029	2.56
546.227	2.67
546.426	2.53
546.624	2.51
546.822	2.78
547.02	2.51
547.218	2.35
547.417	2.48
547.615	2.43
547.813	2.56
548.011	2.65
548.209	2.98
548.407	2.66
548.605	2.62
548.803	2.25
549.001	2.63
549.199	2.32
549.397	2.65
549.595	2.6
549.793	2.75
549.991	2.48
550.189	2.43
550.387	2.43
550.584	2.55
550.782	2.48
550.98	2.55
551.178	2.48
551.376	2.44
551.573	2.29
551.771	2.3
551.969	2.26
552.166	2.26
552.364	2.27
552.562	2.11
552.759	2.28
552.957	2.38
553.154	2.11
553.352	1.94
553.55	2.3
553.747	1.98
553.945	2.27
554.142	1.98
554.339	2.21
554.537	2.2
554.734	2.24
554.932	2.04
555.129	2.17
555.326	1.98
555.524	2.15
555.721	2.26
555.918	2
556.116	1.79
556.313	2.42
556.51	2.26
556.707	2.21
556.904	2
557.102	1.74
557.299	2.28
557.496	1.86
557.693	2.3
557.89	1.88
558.087	2.09
558.284	1.79
558.481	1.98
558.678	2.13
558.875	2.21
559.072	1.97
559.269	1.96
559.466	1.93
559.663	1.96
559.86	1.86
560.057	2.19
560.254	1.62
560.45	2.06
560.647	1.65
560.844	1.79
561.041	2.17
561.237	1.56
561.434	1.84
561.631	2.11
561.828	1.78
562.024	1.66
562.221	2.01
562.418	2.12
562.614	2.23
562.811	1.96
563.007	1.83
563.204	2.03
563.4	1.94
563.597	1.67
563.793	1.95
563.99	1.71
564.186	1.76
564.383	2.07
564.579	1.96
564.775	1.82
564.972	2.13
565.168	1.8
565.365	2
565.561	1.8
565.757	1.92
565.953	1.65
566.15	1.92
566.346	1.86
566.542	1.72
566.738	1.8
566.934	1.8
567.131	1.67
567.327	2.07
567.523	1.76
567.719	1.76
567.915	1.85
568.111	1.88
568.307	2.01
568.503	1.89
568.699	1.73
568.895	1.68
569.091	1.82
569.287	1.84
569.483	1.96
569.679	1.86
569.875	1.65
570.07	1.84
570.266	2.02
570.462	1.86
570.658	1.6
570.854	1.52
571.049	1.57
571.245	1.72
571.441	1.9
571.636	1.74
571.832	1.82
572.028	1.91
572.223	1.51
572.419	1.63
572.615	1.76
572.81	1.73
573.006	1.72
573.201	1.7
573.397	1.86
573.592	1.71
573.788	1.61
573.983	1.43
574.179	1.83
574.374	1.69
574.569	2.09
574.765	1.74
574.96	1.56
575.156	1.6
575.351	1.46
575.546	1.7
575.741	1.93
575.937	1.85
576.132	1.88
576.327	1.82
576.522	1.84
576.718	1.59
576.913	1.93
577.108	1.85
577.303	1.94
577.498	1.48
577.693	1.71
577.888	1.6
578.083	1.79
578.278	1.65
578.473	1.54
578.668	1.96
578.863	1.62
579.058	1.69
579.253	1.59
579.448	1.78
579.643	1.82
579.838	1.6
580.033	1.66
580.227	1.67
580.422	1.64
580.617	1.94
580.812	1.86
581.006	1.74
581.201	1.83
581.396	1.61
581.591	1.52
581.785	1.97
581.98	2.06
582.175	1.85
582.369	1.99
582.564	1.8
582.758	2.02
582.953	1.87
583.147	1.81
583.342	1.89
583.536	1.79
583.731	1.8
583.925	1.94
584.12	1.91
584.314	1.87
584.509	1.96
584.703	1.64
584.897	1.74
585.092	2.02
585.286	1.88
585.48	1.91
585.674	1.77
585.869	1.87
586.063	1.91
586.257	1.77
586.451	1.79
586.646	1.97
586.84	1.76
587.034	1.66
587.228	1.63
587.422	1.67
587.616	1.62
587.81	1.8
588.004	1.82
588.198	1.92
588.392	1.71
588.586	1.97
588.78	2.03
588.974	1.75
589.168	1.75
589.362	2.02
589.556	1.98
589.75	1.9
589.944	1.97
590.137	1.84
590.331	2.07
590.525	2.03
590.719	1.87
590.913	1.99
591.106	2.11
591.3	2.02
591.494	2.05
591.687	1.88
591.881	1.98
592.075	1.81
592.268	1.9
592.462	1.79
592.655	1.8
592.849	1.8
593.043	1.89
593.236	1.83
593.43	1.77
593.623	1.6
593.817	2.02
594.01	2.06
594.203	2.24
594.397	1.83
594.59	2.31
594.784	1.95
594.977	1.82
595.17	1.89
595.364	1.65
595.557	2.28
595.75	1.93
595.943	1.97
596.137	2.14
596.33	1.9
596.523	2.26
596.716	2.03
596.909	2.01
597.102	2.12
597.296	1.94
597.489	2.11
597.682	1.99
597.875	1.81
598.068	2.04
598.261	1.98
598.454	2.08
598.647	1.82
598.84	2.04
599.033	1.89
599.226	1.98
599.419	1.92
599.611	2.13
599.804	2.23
599.997	1.98
600.19	2.01
600.383	1.94
600.576	2.16
600.768	2.05
600.961	1.93
601.154	2.12
601.347	2.24
601.539	2.21
601.732	2.18
601.925	2.21
602.117	2.2
602.31	2.39
602.502	2.16
602.695	2.14
602.888	2.22
603.08	2.07
603.273	1.84
603.465	2.25
603.658	2.4
603.85	2.23
604.043	2.4
604.235	2.32
604.427	2.17
604.62	2.16
604.812	2.29
605.004	2.43
605.197	2.35
605.389	2.37
605.581	2.14
605.774	2.34
605.966	2.41
606.158	2.28
606.35	2.43
606.543	2.27
606.735	2.48
606.927	2.22
607.119	2.74
607.311	2.43
607.503	2.3
607.695	2.64
607.887	2.47
608.079	2.43
608.271	2.7
608.463	2.2
608.655	2.58
608.847	2.44
609.039	2.44
609.231	2.5
609.423	2.44
609.615	2.47
609.807	2.45
609.999	2.5
610.191	2.7
610.382	2.63
610.574	2.57
610.766	2.6
610.958	2.53
611.15	2.49
611.341	2.7
611.533	2.6
611.725	2.7
611.916	2.8
612.108	2.81
612.3	2.83
612.491	2.6
612.683	2.51
612.874	2.87
613.066	3.04
613.257	2.85
613.449	2.67
613.64	2.73
613.832	2.93
614.023	2.82
614.215	2.85
614.406	2.66
614.598	2.76
614.789	2.91
614.98	2.72
615.172	2.85
615.363	2.89
615.554	2.82
615.746	2.5
615.937	2.93
616.128	2.75
616.319	3.09
616.511	2.8
616.702	2.83
616.893	2.8
617.084	3.04
617.275	2.93
617.466	2.9
617.658	2.88
617.849	3.13
618.04	2.98
618.231	2.82
618.422	2.75
618.613	3.17
618.804	3.03
618.995	3.32
619.186	3.29
619.377	3.02
619.568	3.12
619.758	3.08
619.949	3.31
620.14	2.98
620.331	2.99
620.522	3.16
620.713	2.94
620.903	3.37
621.094	3.29
621.285	3.29
621.476	3.36
621.666	3.25
621.857	3.23
622.048	3.19
622.238	3.34
622.429	3.63
622.62	3.4
622.81	3.68
623.001	3.72
623.191	3.66
623.382	3.56
623.572	3.86
623.763	3.64
623.953	3.43
624.144	3.35
624.334	3.46
624.525	3.9
624.715	3.68
624.905	3.7
625.096	3.85
625.286	3.65
625.477	3.69
625.667	4
625.857	3.81
626.047	3.72
626.238	3.91
626.428	3.9
626.618	4.01
626.808	3.86
626.999	3.6
627.189	4.15
627.379	3.9
627.569	4.03
627.759	4.06
627.949	4.05
628.139	3.81
628.329	4.04
628.519	4.05
628.709	4.06
628.899	3.89
629.089	3.99
629.279	3.88
629.469	4.23
629.659	4.1
629.849	4.14
630.039	4.17
630.229	4.09
630.419	3.97
630.609	4.15
630.798	4.25
630.988	4.5
631.178	4.21
631.368	4.19
631.557	4.39
631.747	4.38
631.937	4.36
632.127	4.47
632.316	4.17
632.506	4.4
632.696	4.68
632.885	4.53
633.075	4.58
633.264	4.55
633.454	4.67
633.643	4.55
633.833	4.73
634.022	4.81
634.212	4.64
634.401	4.73
634.591	4.76
634.78	4.69
634.97	4.77
635.159	4.73
635.348	4.85
635.538	4.89
635.727	4.73
635.916	4.94
636.106	4.88
636.295	5.01
636.484	4.81
636.674	4.9
636.863	5.02
637.052	4.87
637.241	5.1
637.43	5.35
637.619	5.14
637.809	5.18
637.998	5.35
638.187	5.3
638.376	5.34
638.565	5.29
638.754	5.32
638.943	5.52
639.132	5.48
639.321	5.54
639.51	5.36
639.699	5.19
639.888	5.22
640.077	5.51
640.266	5.57
640.455	5.52
640.643	5.58
640.832	5.65
641.021	5.5
641.21	5.71
641.399	5.54
641.587	5.96
641.776	5.82
641.965	5.74
642.154	6.09
642.342	5.91
642.531	6.25
642.72	5.98
642.908	6.19
643.097	5.83
643.286	6.36
643.474	6.57
643.663	6.39
643.851	6.21
644.04	6.06
644.228	6.23
644.417	6.39
644.605	6.12
644.794	6.21
644.982	6.24
645.171	6.1
645.359	6.54
645.547	6.6
645.736	6.47
645.924	6.34
646.112	6.51
646.301	6.24
646.489	6.5
646.677	6.69
646.866	6.38
647.054	6.68
647.242	6.43
647.43	6.63
647.618	6.88
647.807	7.23
647.995	6.96
648.183	7.15
648.371	6.68
648.559	6.97
648.747	6.88
648.935	7.05
649.123	7.22
649.311	7.51
649.499	7.37
649.687	7.43
649.875	7.01
650.063	7.32
650.251	6.9
650.439	7.42
650.627	7.17
650.815	7.39
651.003	7.2
651.191	7.62
651.378	7.7
651.566	7.62
651.754	7.36
651.942	7.64
652.13	7.9
652.317	7.86
652.505	8.28
652.693	7.84
652.88	8.35
653.068	7.78
653.256	8.3
653.443	7.99
653.631	8.21
653.819	8.36
654.006	8.24
654.194	8.33
654.381	8.29
654.569	8.37
654.756	8.37
654.944	8.44
655.131	8.4
655.319	8.43
655.506	8.38
655.693	8.51
655.881	8.46
656.068	8.57
656.256	9.17
656.443	8.65
656.63	9.04
656.818	8.85
657.005	8.94
657.192	9.06
657.379	9.12
657.567	9.13
657.754	9.17
657.941	9.27
658.128	9.25
658.315	9.12
658.502	9.06
658.69	9.25
658.877	9.58
659.064	9.44
659.251	9.63
659.438	9.74
659.625	9.59
659.812	9.51
659.999	9.91
660.186	9.86
660.373	9.66
660.56	9.71
660.747	9.8
660.934	10.07
661.121	10.2
661.308	10.05
661.494	10.06
661.681	10.19
661.868	10.37
662.055	10.58
662.242	10.31
662.428	10.54
662.615	10.32
662.802	10.98
662.989	10.93
663.175	11.07
663.362	11.56
663.549	11.47
663.735	11.32
663.922	11.42
664.109	11.17
664.295	11.12
664.482	11.55
664.668	11.08
664.855	11.32
665.041	11.14
665.228	11.35
665.414	11.51
665.601	11.2
665.787	11.68
665.974	11.65
666.16	11.25
666.347	11.28
666.533	11.61
666.719	11.59
666.906	11.61
667.092	11.69
667.278	11.98
667.465	11.83
667.651	12.14
667.837	11.94
668.023	11.94
668.21	11.92
668.396	11.59
668.582	12
668.768	11.76
668.954	12.15
669.14	12.39
669.327	12.48
669.513	12.74
669.699	12.88
669.885	12.83
670.071	13.17
670.257	12.91
670.443	12.86
670.629	12.68
670.815	13.13
671.001	13.08
671.187	12.89
671.373	12.89
671.559	12.99
671.744	13.25
671.93	13.31
672.116	13.34
672.302	13.87
672.488	13.56
672.674	13.93
672.859	14.01
673.045	13.91
673.231	13.69
673.417	13.78
673.602	13.23
673.788	13.94
673.974	13.29
674.159	13.41
674.345	13.34
674.531	13.71
674.716	13.73
674.902	13.96
675.087	14.12
675.273	14.63
675.459	14.18
675.644	14.35
675.83	13.97
676.015	14.39
676.2	14.54
676.386	13.81
676.571	14.38
676.757	14.3
676.942	14.57
677.128	14.46
677.313	14.03
677.498	13.76
677.684	14.15
677.869	14.48
678.054	15.02
678.24	14.98
678.425	14.99
678.61	14.81
678.795	14.72
678.98	15.3
679.166	15.5
679.351	15.03
679.536	15.17
679.721	15.33
679.906	15.02
680.091	15.25
680.276	15.1
680.461	15.9
680.647	15.84
680.832	15.89
681.017	15.46
681.202	15.51
681.387	15.79
681.572	15.37
681.756	15.64
681.941	15.15
682.126	15.59
682.311	15.62
682.496	15.47
682.681	15.92
682.866	15.81
683.051	15.44
683.235	15.55
683.42	16.35
683.605	15.92
683.79	16.43
683.974	16.18
684.159	15.87
684.344	16.18
684.529	15.93
684.713	16.37
684.898	16.24
685.083	16.08
685.267	16.07
685.452	16.46
685.636	16.4
685.821	16.21
686.005	16.4
686.19	16.55
686.375	16.71
686.559	16.17
686.744	16.17
686.928	15.91
687.112	16.04
687.297	16.08
687.481	16.05
687.666	15.98
687.85	15.6
688.034	16.17
688.219	16.28
688.403	16.04
688.587	16.18
688.772	16.21
688.956	16.26
689.14	16.55
689.324	16.84
689.509	16.52
689.693	16.14
689.877	16.33
690.061	16.14
690.245	16.23
690.43	15.97
690.614	16.27
690.798	16.2
690.982	16.69
691.166	16.5
691.35	16.28
691.534	16.62
691.718	16.46
691.902	16.48
692.086	16.28
692.27	16
692.454	16.29
692.638	16.78
692.822	17.13
693.006	16.96
693.19	17
693.373	16.74
693.557	17
693.741	17.1
693.925	17.03
694.109	16.88
694.293	16.84
694.476	16.99
694.66	17.8
694.844	16.85
695.027	17.4
695.211	16.7
695.395	16.78
695.578	17.03
695.762	16.54
695.946	16.8
696.129	16.76
696.313	17.22
696.497	16.94
696.68	16.84
696.864	16.86
697.047	17.26
697.231	16.71
697.414	16.64
697.598	16.47
697.781	16.22
697.965	15.9
698.148	16.38
698.331	16.27
698.515	16.6
698.698	16.01
698.881	16.61
699.065	16.43
699.248	16.74
699.431	16.69
699.615	16.58
699.798	16.52
699.981	16.8
700.165	16.66
700.348	16.67
700.531	16.61
700.714	16.26
700.897	16.14
701.08	16.39
701.264	16.25
701.447	16.45
701.63	16.17
701.813	16.63
701.996	16.78
702.179	16.71
702.362	16.74
702.545	16.36
702.728	16.59
702.911	17.06
703.094	16.9
703.277	16.88
703.46	17.08
703.643	17.04
703.826	17.26
704.009	16.7
704.191	16.81
704.374	16.28
704.557	16.58
704.74	16.34
704.923	16.93
705.106	16.35
705.288	16.21
705.471	15.85
705.654	15.94
705.837	15.79
706.019	16.12
706.202	16.28
706.385	16.65
706.567	15.82
706.75	16.14
706.932	15.65
707.115	16.11
707.298	15.63
707.48	15.94
707.663	16
707.845	16.45
708.028	16.39
708.21	16
708.393	16.35
708.575	16.48
708.758	16.21
708.94	16.6
709.123	17.03
709.305	16.73
709.487	16.17
709.67	16.52
709.852	16.05
710.034	16.48
710.217	16.28
710.399	16.11
710.581	16.41
710.764	16.48
710.946	16.14
711.128	15.69
711.31	15.52
711.492	15.48
711.675	15.74
711.857	15.46
712.039	15.98
712.221	15.66
712.403	15.9
712.585	15.91
712.767	15.88
712.949	15.55
713.131	16.54
713.314	16.26
713.496	16.2
713.678	15.96
713.86	15.67
714.041	16
714.223	15.69
714.405	15.31
714.587	15.6
714.769	15.27
714.951	15.24
715.133	15.76
715.315	16.09
715.497	16.79
715.678	16.42
715.86	16.61
716.042	16.25
716.224	16.12
716.406	15.48
716.587	16.29
716.769	15.92
716.951	15.48
717.132	15.36
717.314	15.65
717.496	15.75
717.677	15.66
717.859	15.72
718.041	15.38
718.222	15.21
718.404	15.3
718.585	15.5
718.767	15.27
718.948	15.48
719.13	15.5
719.311	15.42
719.493	15.94
719.674	15.24
719.856	15.3
720.037	15.41
720.219	15.16
720.4	15.41
720.581	15.48
720.763	15.45
720.944	15.53
721.125	15.65
721.307	15.24
721.488	15.28
721.669	15.17
721.85	14.92
722.032	14.93
722.213	15.55
722.394	15.39
722.575	15.3
722.756	15
722.938	15.19
723.119	14.68
723.3	15.26
723.481	15.44
723.662	15.11
723.843	15.16
724.024	15.09
724.205	15.49
724.386	15.33
724.567	15.06
724.748	15.06
724.929	15.1
725.11	15.19
725.291	15.51
725.472	15.74
725.653	16.2
725.834	15.67
726.015	15
726.196	15.14
726.377	14.99
726.557	14.93
726.738	15.16
726.919	15.1
727.1	14.7
727.281	15.3
727.461	15.2
727.642	15.47
727.823	15.45
728.004	15.09
728.184	15.47
728.365	15.91
728.546	15.26
728.726	15.66
728.907	14.88
729.087	14.79
729.268	14.53
729.449	14.39
729.629	14.72
729.81	14.86
729.99	14.49
730.171	14.61
730.351	14.54
730.532	14.29
730.712	14.09
730.893	14.16
731.073	14.08
731.253	14.06
731.434	13.84
731.614	14.23
731.795	14.47
731.975	13.81
732.155	14.37
732.336	14.72
732.516	14.65
732.696	14.24
732.876	14.42
733.057	13.97
733.237	13.59
733.417	13.85
733.597	13.94
733.778	13.85
733.958	13.9
734.138	13.67
734.318	13.83
734.498	13.93
734.678	13.41
734.858	14.43
735.038	14.78
735.218	14.52
735.398	14.62
735.579	14.52
735.759	14.62
735.939	14.59
736.119	14.58
736.298	15.3
736.478	14.15
736.658	14.27
736.838	14.2
737.018	14.78
737.198	14.24
737.378	14.53
737.558	14.45
737.738	14.33
737.917	14.75
738.097	14.62
738.277	14.46
738.457	14.63
738.637	14.31
738.816	14.15
738.996	14.29
739.176	13.9
739.355	14.01
739.535	14.04
739.715	14.18
739.894	13.63
740.074	13.4
740.254	13.89
740.433	13.21
740.613	13.4
740.792	13.92
740.972	13.91
741.151	13.31
741.331	13.67
741.51	14.06
741.69	14.31
741.869	14.83
742.049	14.02
742.228	14.45
742.408	14.47
742.587	14.11
742.766	14.56
742.946	14.68
743.125	13.98
743.305	14.83
743.484	14.28
743.663	14.23
743.842	13.64
744.022	13.81
744.201	13.71
744.38	13.89
744.56	13.73
744.739	14.37
744.918	13.9
745.097	14.04
745.276	14.24
745.455	13.72
745.635	13.79
745.814	14.04
745.993	14.65
746.172	13.89
746.351	13.99
746.53	14.61
746.709	14.09
746.888	13.75
747.067	13.75
747.246	14.06
747.425	14.34
747.604	14.44
747.783	14.52
747.962	14.32
748.141	14.66
748.32	14.07
748.499	14.44
748.677	13.83
748.856	13.85
749.035	14.44
749.214	15.09
749.393	14.56
749.572	13.42
749.75	13.56
749.929	13.75
750.108	14.2
750.287	14.43
750.465	13.9
750.644	14.5
750.823	14.47
751.001	13.18
751.18	14.02
751.359	13.52
751.537	13.62
751.716	13.03
751.894	13.33
752.073	13.5
752.251	13.02
752.43	13.91
752.609	13.29
752.787	13.68
752.966	13.48
753.144	13.48
753.322	13.11
753.501	13.72
753.679	13.2
753.858	13.29
754.036	13.01
754.215	13.01
754.393	12.61
754.571	12.66
754.75	12.83
754.928	13.17
755.106	13.37
755.284	13.34
755.463	13.86
755.641	13.53
755.819	14.03
755.997	14.07
756.176	13.97
756.354	13.72
756.532	13.6
756.71	13.9
756.888	13.38
757.066	13.45
757.245	13.32
757.423	13.17
757.601	12.96
757.779	12.86
757.957	13.67
758.135	13.43
758.313	13.36
758.491	13.5
758.669	13.12
758.847	13.46
759.025	13.24
759.203	13.55
759.381	13.48
759.559	13.71
759.737	13.62
759.915	13.53
760.092	13.48
760.27	13.59
760.448	12.65
760.626	13.14
760.804	12.82
760.981	13.07
761.159	13.76
761.337	13.14
761.515	13.96
761.692	13.24
761.87	13.03
762.048	12.92
762.226	12.99
762.403	13
762.581	13.02
762.759	12.81
762.936	13.44
763.114	14.36
763.291	13.9
763.469	13.67
763.647	13.63
763.824	13.5
764.002	14.35
764.179	13.61
764.357	14.03
764.534	12.61
764.712	13.04
764.889	13.14
765.066	12.94
765.244	12.27
765.421	12.85
765.599	13.07
765.776	12.7
765.953	12.59
766.131	12.85
766.308	12.74
766.485	13.12
766.663	13.73
766.84	13.11
767.017	12.55
767.194	13.92
767.372	12.87
767.549	13.25
767.726	12.72
767.903	13.43
768.081	12.03
768.258	12.68
768.435	13.51
768.612	13.68
768.789	12.84
768.966	13.19
769.143	12.77
769.32	12.72
769.497	13.05
769.674	12.25
769.851	13.1
770.028	13.12
770.205	13.46
770.382	12.63
770.559	13.37
770.736	13.6
770.913	13.28
771.09	13.1
771.267	13.28
771.444	12.81
771.621	12.72
771.798	12.54
771.975	13.15
772.151	13.48
772.328	13.9
772.505	13.88
772.682	12.77
772.859	12.69
773.035	13.78
773.212	12.19
773.389	12.67
773.565	12.83
773.742	13.49
773.919	11.94
774.096	12.35
774.272	13.03
774.449	11.82
774.625	11.48
774.802	12.63
774.979	12.46
775.155	13.65
775.332	12.44
775.508	13.5
775.685	11.49
775.861	12.71
776.038	13.3
776.214	11.94
776.391	12.66
776.567	13.07
776.744	14.2
776.92	12.69
777.096	12.7
777.273	12.66
777.449	13.13
777.626	11.65
777.802	12.81
777.978	13.2
778.155	11.88
778.331	12.83
778.507	11.39
778.683	11.64
778.86	12.19
779.036	13.25
779.212	12.5
779.388	12.91
779.565	11.68
779.741	13.85
779.917	12.51
780.093	12.27
780.269	9.64
780.445	11.47
780.621	12.69
780.797	11.52
780.974	11.79
781.15	11.63
781.326	12.9
781.502	10.71
781.678	12.77
781.854	11.95
782.03	10.21
782.206	12.29
782.382	11.64
782.558	13.26
782.733	12.52
782.909	13.79
783.085	12.29
783.261	12.74
783.437	11.32
783.613	12.44
783.789	11.66
783.965	11.85
784.14	10.59
784.316	11.71
784.492	11.72
784.668	11.73
784.843	11.77
785.019	12.13
785.195	11
785.371	11.09
785.546	12.81
785.722	11.83
785.898	11.64
786.073	11.82
786.249	13.67
786.424	10.35
786.6	11.99
786.776	10.9
786.951	11.41
787.127	13.02
787.302	12.4
787.478	11.38
787.653	10.64
787.829	12.21
788.004	12.68
788.18	12.6
788.355	11.46
788.531	11.63
788.706	13.24
788.881	11.14
789.057	14.01
789.232	11.13
789.408	12.97
789.583	12.82
789.758	10.61
789.934	10.77
790.109	10.16
790.284	13.24
790.459	11.45
790.635	12.69
790.81	12.88
790.985	11.76
791.16	10.83
791.336	11.95
791.511	12.65
791.686	10.74
791.861	12.71
792.036	14.53
792.211	10.53
792.387	11.34
792.562	12.13
792.737	11.23
792.912	10.01
793.087	11.92
793.262	11.67
793.437	11.33
793.612	10.06
793.787	11.14
793.962	10.45
794.137	13.22
794.312	13.33
794.487	13.05
794.662	10.83
794.837	12.16
795.011	10.63
795.186	12.73
795.361	11.32
795.536	11.23
795.711	10.49
795.886	11.17
796.06	8.9
796.235	11.96
796.41	10.42
796.585	10.09
796.76	10.79
796.934	13.15
797.109	13.49
797.284	10.35
797.458	10.3
797.633	12.12
797.808	8.41
797.982	11.83
798.157	13.69
798.332	10.28
798.506	9.07
798.681	10.85
798.855	12.99
799.03	11.26
799.204	12.61
799.379	11.48
799.553	10.37
799.728	7.65
799.902	11.02
800.077	9.62
800.251	11.49
800.426	9.3
800.6	12.04
800.775	11.89
800.949	12.09
801.123	13.5
801.298	11.7
801.472	9.69
801.647	9.57
801.821	11.35
801.995	11.38
802.169	11.25
802.344	10.65
802.518	13.21
802.692	8.05
802.867	13.06
803.041	10.12
803.215	9.92
803.389	11.86
803.563	9.25
803.737	12.43
803.912	13.14
804.086	11.17
804.26	10.76
804.434	7.87
804.608	11.56
804.782	10.84
804.956	12.19
805.13	10.12
805.304	8.98
805.478	15.41
805.652	13.11
805.826	14
806	12.7
806.174	12.1
806.348	11.87
806.522	11.5
806.696	10.73
806.87	11.61
807.044	15.09
807.218	10.4
807.392	11.96
807.566	11.59
807.739	8.35
807.913	9.57
808.087	12.48
808.261	8.72
808.435	7.7
808.608	4.93
808.782	8
808.956	11.95
809.13	8.53
809.303	11.33
809.477	12.49
809.651	14.17
809.824	14
809.998	12.07
810.172	11.59
810.345	12.12
810.519	8.92
810.692	11.35
810.866	10.52
811.04	9.97
811.213	10.25
811.387	8.4
811.56	11.2
811.734	11.33
811.907	14.38
812.081	10.86
812.254	10.2
812.428	11.27
812.601	11.39
812.774	9.62
812.948	11.49
813.121	12.06
813.295	10.13
813.468	9.26
813.641	7.49
813.815	10.41
813.988	11.9
814.161	10.3
814.335	10.8
814.508	9.08
814.681	10.93
814.854	13.49
815.028	12.05
815.201	11.73
815.374	8.71
815.547	11.3
815.72	12.88
815.894	11.82
816.067	10.84
816.24	11.32
816.413	12.05
816.586	11.55
816.759	10.84
816.932	9.89
817.105	14.79
817.278	9.86
817.452	12.68
817.625	13.16
817.798	10.75
817.971	10.76
818.144	10.07
818.317	16.43
818.49	7.5
818.662	8.58
818.835	11.09
819.008	8.05
819.181	12.67
819.354	11.09
819.527	13.28
819.7	10.34
819.873	11.36
820.046	12.94
820.218	9.87
820.391	9.13
820.564	11.04
820.737	7.79
820.909	10.36
821.082	9.94
821.255	7.48
821.428	12.74
821.6	11.47
821.773	11.46
821.946	10.33
822.118	11
822.291	12.29
822.464	3.63
822.636	8.56
822.809	10.57
822.982	14.03
823.154	14.04
823.327	10.94
823.499	5.96
823.672	9.63
823.844	6.16
824.017	10.08
824.189	10.88
824.362	10.29
824.534	10.81
824.707	10.95
824.879	9.05
825.052	10.33
825.224	14.2
825.396	9.27
825.569	12.61
825.741	8.03
825.914	6.79
826.086	11.56
826.258	10.09
826.431	13.04
826.603	6.88
826.775	15.24
826.947	8.11
827.12	12.7
827.292	14.82
827.464	6.39
827.636	9.46
827.809	10.44
827.981	14.36
828.153	11.28
828.325	8.8
828.497	12.65
828.669	10.62
828.842	10.54
829.014	11.96
829.186	9.43
829.358	8.1
829.53	11.25
829.702	11.01
829.874	11.35
830.046	8.94
830.218	12.67
830.39	7.79
830.562	9.88
830.734	10.97
830.906	10
831.078	8.64
831.25	11.38
831.422	7.02
831.594	9.75
831.766	9.53
831.937	7.81
832.109	8.42
832.281	8.64
832.453	8.31
832.625	9.66
832.797	11.75
832.968	13.87
833.14	12.16
833.312	8.6
833.484	8.4
833.655	11.47
833.827	10.66
833.999	7.03
834.171	10.11
834.342	13.57
834.514	9.79
834.686	10.78
834.857	9.94
835.029	9.84
835.2	12.81
835.372	11.56
835.544	7.24
835.715	8.15
835.887	9.04
836.058	6.31
836.23	13.14
836.401	6.54
836.573	13.39
836.744	9.6
836.916	4.69
837.087	8.11
837.259	11.73
837.43	10.97
837.602	10.64
837.773	10
837.945	8.31
838.116	6.9
838.287	5.96
838.459	12.72
838.63	10.16
838.801	11.37
838.973	5.71
839.144	13.35
839.315	13.13
839.487	9.69
839.658	12.13
839.829	8.65
840	6.41
840.172	12.32
840.343	8.07
840.514	9.24
840.685	8.22
840.856	10.65
841.027	11.6
841.199	10.9
841.37	6.94
841.541	8.52
841.712	11.37
841.883	10.42
842.054	10.42
842.225	9.39
842.396	15.96
842.567	3.53
842.738	18.69
842.909	11.46
843.08	7.79
843.251	10.53
843.422	7.8
843.593	11.07
843.764	6.95
843.935	8.46
844.106	8.27
844.277	12.16
844.448	11.47
844.619	9.12
844.79	10.84
844.96	13.94
845.131	9.69
845.302	11.04
845.473	13.56
845.644	10.58
845.814	6.61
845.985	9.74
846.156	6
846.327	6.31
846.497	5.45
846.668	10.91
846.839	7.77
847.01	11.38
847.18	6.87
847.351	12.49
847.522	12.8
847.692	12.14
847.863	5.13
848.033	9.47
848.204	10.25
848.375	5.14
848.545	11.03
848.716	8.92
848.886	7.67
849.057	10.64
849.227	7.69
849.398	4.25
849.568	10.75
849.739	9.86
849.909	2.7
850.08	11.79
850.25	6.36
850.421	6.63
850.591	11.69
850.761	4.22
850.932	8.3
851.102	2.28
851.272	10.32
851.443	7.63
851.613	1.87
851.783	7.81
851.954	9.61
852.124	11.69
852.294	7.47
852.465	10.7
852.635	4.53
852.805	7.9
852.975	7.28
853.145	5.45
853.316	9.93
853.486	4.92
853.656	11.06
853.826	4.18
853.996	8.21
854.166	7.56
854.337	7.85
854.507	12.32
854.677	9.24
854.847	11.27
855.017	8.59
855.187	12.08
855.357	7.28
855.527	2.18
855.697	12.6
855.867	3.09
856.037	14.13
856.207	11.63
856.377	8.74
856.547	13.03
856.717	14.09
856.887	8.78
857.057	12.44
857.227	4.03
857.397	13.82
857.566	12.74
857.736	2.32
857.906	9.2
858.076	11.03
858.246	10.73
858.416	10.31
858.585	-0.57
858.755	3.29
858.925	8.56
859.095	6.11
859.264	11.84
859.434	9.89
859.604	9.79
859.774	8.52
859.943	12.15
860.113	5.89
860.283	11.97
860.452	7.22
860.622	6.58
860.791	5.39
860.961	11.38
861.131	5.6
861.3	1.07
861.47	6.15
861.639	7.74
861.809	10.21
861.978	7.82
862.148	1.93
862.318	3.44
862.487	2.07
862.657	4.19
862.826	6.62
862.995	10.96
863.165	18.14
863.334	1.47
863.504	-4.7
863.673	5.14
863.843	5.41
864.012	14.72
864.181	11.36
864.351	8.64
864.52	-1.12
864.689	5.78
864.859	3.74
865.028	11.15
865.197	4.19
865.366	15.22
865.536	7.84
865.705	10.14
865.874	4.29
866.043	4.12
866.213	6.29
866.382	11.99
866.551	7.62
866.72	18.27
866.889	9.87
867.059	0.53
867.228	7.22
867.397	-8.2
867.566	-2.66
867.735	12.62
867.904	4.8
868.073	10.78
868.242	10.49
868.411	5.43
868.58	0.7
868.749	15.63
868.918	5.6
869.087	2.86
869.256	6
869.425	0.51
869.594	3.1
869.763	11.59
869.932	12.23
870.101	5.88
870.27	4.29
870.439	5.38
870.608	2.91
870.777	1.18
870.945	11.11
871.114	11.35
871.283	0.11
871.452	9.3
871.621	12.08
871.789	7.26
871.958	7.87
872.127	3.95
872.296	3.47
872.464	6.73
872.633	15.5
872.802	11.05
872.971	14.5
873.139	0.11
873.308	13.04
873.477	-0.34
873.645	6.24
873.814	4.42
873.983	-2
874.151	3.84
874.32	4.2
874.488	8.63
874.657	13.57
874.826	9.64
874.994	4.74
875.163	1.4
875.331	7.75
875.5	9.02
875.668	6.57
875.837	3.1
876.005	7.59
876.174	17.23
876.342	14.67
876.51	6.5
876.679	12.73
876.847	16.26
877.016	-1.77
877.184	7.49
877.352	6.02
877.521	7.59
877.689	1.12
877.857	16.96
878.026	9.56
878.194	18.9
878.362	11.44
878.531	-5.46
878.699	4.19
878.867	7.3
879.036	0.12
879.204	6.38
879.372	5.07
879.54	-7.55
879.708	9.65
879.877	16.09
880.045	21.81
880.213	7.42
880.381	12.48
880.549	9.06
880.717	3.68
880.885	11.5
881.054	-3.71
881.222	13.01
881.39	4.13
881.558	13.44
881.726	-10.16
881.894	23.57
882.062	1.36
882.23	10.01
882.398	-0.82
882.566	-6.56
882.734	3.35
882.902	20.81
883.07	3.83
883.238	-3.77
883.406	2.31
883.574	-3.59
883.741	1.27
883.909	1.12
884.077	6.11
884.245	14.79
884.413	0.83
884.581	-1.95
884.749	5.43
884.916	0.56
885.084	9.7
885.252	4.14
885.42	13.59
885.587	23.39
885.755	-6.04
885.923	13.17
886.091	2.35
886.258	17.71
886.426	0.15
886.594	9.17
886.761	-5.6
886.929	5.17
887.097	1.29
887.264	14.74
887.432	18.57
887.6	9.44
887.767	12.09
887.935	3.37
888.102	0.99
888.27	6.48
888.438	17.12
888.605	-20.31
888.773	4.71
888.94	11.85
889.108	-1.7
889.275	9.91
889.443	7.26
889.61	14.91
889.778	3.43
889.945	-6.61
890.112	5.77
890.28	-1.4
890.447	7.24
890.615	2.1
890.782	6.85
890.949	0.89
891.117	0.92
891.284	13.58
891.452	-2.23
891.619	17.58
891.786	-2.46
891.953	14.1
892.121	12.89
892.288	1.86
892.455	14.47
892.623	-0.73
892.79	8.09
892.957	-4.62
893.124	12.35
893.291	6.99
893.459	7.43
893.626	5.78
893.793	-14.2
893.96	11.75
894.127	12.39
894.294	7.29
894.461	-4.84
894.629	6.83
894.796	-4.33
894.963	-4.14
895.13	17.68
895.297	10.38
895.464	22.6
895.631	-4.04
895.798	17.32
895.965	-5.47
896.132	-3.15
896.299	3.53
896.466	16.09
896.633	10.26
896.8	2.07
896.967	10.64
897.134	11.03
897.301	-20.91
897.467	12.33
897.634	16.64
897.801	2.69
897.968	-1.52
898.135	5.62
898.302	-8.92
898.469	13.39
898.635	0.17
898.802	9.8
898.969	9.97
899.136	10.33
899.303	6.96
