Data from y0_Transmission_15-21-45-581.txt Node
Date: Thu May 02 15:21:45 EDT 2019
User: dh1006
Spectrometer: USB4E01358
Autoset integration time: false
Trigger mode: 4
Integration Time (sec): 8.000000E-2
Scans to average: 1
Electric dark correction enabled: true
Nonlinearity correction enabled: false
Boxcar width: 0
Stray light correction enabled: false
XAxis mode: Wavelengths
Stop averaging: false
Number of Pixels in Spectrum: 3648
>>>>>Begin Spectral Data<<<<<
176.727	603.33
176.966	603.33
177.205	603.33
177.444	29.78
177.683	52.02
177.922	34.69
178.161	47.22
178.4	-103
178.638	-4575
178.877	-302.9
179.116	-165.26
179.355	654.55
179.593	51.39
179.832	89.01
180.071	147.95
180.309	3044.44
180.548	100.88
180.786	52.96
181.025	-5225
181.263	-107.93
181.502	97.9
181.74	32.91
181.979	27.62
182.217	-331.21
182.456	93.93
182.694	44.94
182.932	-86.9
183.17	-101.82
183.409	-89.12
183.647	40.71
183.885	354.74
184.123	145.35
184.361	253.24
184.6	-43.15
184.838	-1144.44
185.076	508.93
185.314	-122
185.552	25.75
185.79	-102.01
186.028	61.86
186.266	-70.92
186.503	-11.7
186.741	140.29
186.979	81.7
187.217	-7825
187.455	54.2
187.693	-56.79
187.93	-23.74
188.168	679.17
188.406	47.22
188.643	-25.58
188.881	-1150.72
189.119	-123.73
189.356	-121.3
189.594	63.64
189.831	-11.57
190.069	-37.91
190.306	-138.6
190.543	9.51
190.781	25.5
191.018	40
191.256	-40.98
191.493	-112.41
191.73	42.64
191.967	-535.71
192.205	-88.59
192.442	-0.25
192.679	300
192.916	186.25
193.153	75.19
193.39	-535.71
193.628	339.39
193.865	-128.01
194.102	217.46
194.339	16.74
194.576	107.58
194.813	11.77
195.049	88.75
195.286	32.68
195.523	118.73
195.76	90.94
195.997	-182.26
196.234	-46.2
196.47	-24.15
196.707	-204.48
196.944	-175.92
197.18	43.62
197.417	203.52
197.654	40
197.89	74.41
198.127	40.58
198.363	374.71
198.6	-17.58
198.836	-64
199.073	-0.13
199.309	90.32
199.546	54.05
199.782	-215.09
200.018	-1390
200.255	95.35
200.491	-516.28
200.727	56.73
200.963	48.04
201.199	-202.39
201.436	219.66
201.672	-56.67
201.908	91.75
202.144	-64
202.38	-261.05
202.616	-12.29
202.852	239.93
203.088	41.61
203.324	-220
203.56	-143.9
203.796	-60.4
204.032	5.59
204.268	1085.42
204.503	198.44
204.739	-150.87
204.975	-28.99
205.211	-150.67
205.446	45.36
205.682	-1.98
205.918	-62.79
206.153	19.79
206.389	195.28
206.625	123.1
206.86	72.5
207.096	-90
207.331	27.32
207.567	-49.46
207.802	-89.12
208.037	-90
208.273	96.19
208.508	-25
208.744	60.53
208.979	16.72
209.214	-14325
209.449	13.72
209.685	-32.19
209.92	6.94
210.155	157.98
210.39	-11.27
210.625	-141.07
210.86	-36.65
211.095	370.1
211.33	-5.1
211.565	-169.44
211.8	-58.62
212.035	138.84
212.27	66.74
212.505	207.8
212.74	19.54
212.975	1481.82
213.21	122.86
213.444	-130.7
213.679	-17.71
213.914	12.21
214.149	-69.45
214.383	40
214.618	64.92
214.853	-33.26
215.087	306.99
215.322	86.63
215.556	-307.54
215.791	-213.95
216.025	-43.8
216.26	-150.46
216.494	616.22
216.729	143.52
216.963	-40.56
217.197	73.71
217.432	35.1
217.666	93.9
217.9	-19.79
218.135	51.47
218.369	877.78
218.603	144.31
218.837	3.75
219.071	41.02
219.306	62.17
219.54	105.9
219.774	52.29
220.008	152.1
220.242	-65.29
220.476	300
220.71	113.59
220.944	23.79
221.178	-556.1
221.411	-206.55
221.645	-7.09
221.879	103.38
222.113	-1520
222.347	10.7
222.58	-3.9
222.814	-18.78
223.048	-289.81
223.281	-30.97
223.515	438.05
223.749	23.75
223.982	124.23
224.216	664
224.449	197.37
224.683	-108.85
224.916	-37.04
225.15	61.83
225.383	274
225.617	-47.77
225.85	26.04
226.083	119.13
226.317	6.91
226.55	-72.36
226.783	360.19
227.016	24.58
227.25	485.71
227.483	-210.71
227.716	-91.78
227.949	58.07
228.182	94.3
228.415	-45.57
228.648	-512.5
228.881	10.52
229.114	-132.11
229.347	88.85
229.58	469
229.813	105
230.046	53.79
230.279	-33.25
230.512	28.24
230.745	11.77
230.977	49.48
231.21	72.68
231.443	8.78
231.675	168.91
231.908	-2835.29
232.141	-43.63
232.373	-302.11
232.606	-212.93
232.839	2.41
233.071	22.67
233.304	-10.23
233.536	-28.42
233.769	-107.37
234.001	7.66
234.233	-289.81
234.466	-16.38
234.698	210.78
234.93	17.59
235.163	-23.09
235.395	390.7
235.627	-39.77
235.86	-39.13
236.092	95.43
236.324	51.53
236.556	-9.04
236.788	36.35
237.02	157.18
237.252	88.37
237.484	2.54
237.716	-1476.67
237.948	64.03
238.18	428.93
238.412	-137.69
238.644	157.81
238.876	-317.5
239.108	-140.19
239.34	470.49
239.571	-53.51
239.803	-14.38
240.035	84.07
240.267	90.43
240.498	-422.22
240.73	470.49
240.962	-52.76
241.193	112.27
241.425	40.41
241.656	421.58
241.888	27.99
242.119	30.98
242.351	-637.21
242.582	91.51
242.814	95.87
243.045	65.28
243.277	-320.9
243.508	668.92
243.739	-38.15
243.971	59.87
244.202	27.48
244.433	-226.01
244.664	27.48
244.896	16.14
245.127	-19.38
245.358	-675
245.589	-256.07
245.82	255.04
246.051	-58.52
246.282	36.51
246.513	0.56
246.744	5.7
246.975	-587.8
247.206	-34.65
247.437	36.34
247.668	-325.93
247.899	-24.33
248.129	72.5
248.36	-36.26
248.591	31.84
248.822	-6.44
249.052	-68.66
249.283	38.26
249.514	13.66
249.744	-0.21
249.975	160.13
250.206	20.21
250.436	-47.72
250.667	300
250.897	-43.09
251.128	-18.09
251.358	54.05
251.589	130.28
251.819	-40.48
252.049	60.65
252.28	-30.91
252.51	-23.41
252.74	-4.62
252.971	2575
253.201	98.54
253.431	17.94
253.661	-49.53
253.891	-73.75
254.121	21.85
254.352	-144.89
254.582	1117.14
254.812	4.78
255.042	-222.61
255.272	3.15
255.502	-25
255.732	-2300
255.962	-147.54
256.192	9.99
256.421	-223.43
256.651	-35.2
256.881	-46.67
257.111	-0.13
257.341	-30.25
257.57	150.07
257.8	35.63
258.03	1.83
258.259	-9.18
258.489	19.85
258.719	-48.53
258.948	12.08
259.178	116.86
259.407	242.48
259.637	18.33
259.866	-25
260.096	-105.03
260.325	239.88
260.555	-5.88
260.784	4.77
261.013	-1487.5
261.243	33.71
261.472	352.7
261.701	-139.11
261.931	-162.88
262.16	98.45
262.389	-20.05
262.618	-241.67
262.847	-99.4
263.076	104.45
263.305	-30.97
263.535	-319.34
263.764	50.72
263.993	52.52
264.222	13.46
264.451	68.56
264.679	42.96
264.908	26.24
265.137	14.8
265.366	6.05
265.595	18.71
265.824	97.25
266.053	40.37
266.281	-248.55
266.51	-26.65
266.739	78.76
266.967	-18.37
267.196	11675
267.425	-155.33
267.653	-72.14
267.882	-21.18
268.11	217.46
268.339	-128.45
268.567	-325.47
268.796	-0.42
269.024	-233.93
269.253	-51.44
269.481	51.59
269.709	70.73
269.938	64.33
270.166	88.62
270.394	-114.89
270.623	-22.24
270.851	22.51
271.079	14.35
271.307	-1.31
271.535	-56.09
271.764	2.08
271.992	235.46
272.22	18.54
272.448	-34.5
272.676	166.96
272.904	-125.86
273.132	-25.53
273.36	16.4
273.588	-47.47
273.816	37.64
274.043	-36.26
274.271	41.13
274.499	45.78
274.727	-109.26
274.955	113.24
275.182	-46.36
275.41	-7.53
275.638	215.52
275.866	950
276.093	33.92
276.321	-172.17
276.548	19.75
276.776	-71.02
277.003	53.96
277.231	411.43
277.458	-39.87
277.686	-236.25
277.913	-455.63
278.141	62.46
278.368	16.36
278.595	7.63
278.823	-350
279.05	-98.92
279.277	-42.49
279.505	-148.28
279.732	-192.03
279.959	1302.86
280.186	60.44
280.413	-31.63
280.641	-338.73
280.868	-44.58
281.095	-49.58
281.322	-1086.67
281.549	-78.51
281.776	-26.18
282.003	47.46
282.23	-58.62
282.457	143.04
282.683	34.06
282.91	-171.25
283.137	27.48
283.364	3136.36
283.591	-268.07
283.818	-2950
284.044	-879.07
284.271	128.24
284.498	-4.62
284.724	54.26
284.951	40.34
285.178	84.34
285.404	-53.54
285.631	138.32
285.857	-70.14
286.084	-159.91
286.31	-2.55
286.537	-21.25
286.763	16.47
286.99	-39.49
287.216	3188.89
287.442	-292.52
287.669	-57.8
287.895	13.49
288.121	300
288.347	-5.88
288.574	-21.45
288.8	16.31
289.026	39.02
289.252	72.61
289.478	-223.88
289.704	-12.18
289.931	93.18
290.157	33.71
290.383	-40.21
290.609	4.66
290.835	18.86
291.06	-39.85
291.286	-10.5
291.512	-60.69
291.738	78.34
291.964	10.94
292.19	-284.45
292.416	-119.35
292.641	15.72
292.867	-80.1
293.093	1191.43
293.319	24.73
293.544	-44.7
293.77	-168.28
293.995	156.22
294.221	-204.52
294.447	111.17
294.672	-120.59
294.898	-28.75
295.123	-0.25
295.349	12.03
295.574	46.34
295.799	47.81
296.025	-7.1
296.25	-8.47
296.476	-155
296.701	18.26
296.926	11.64
297.151	-197.35
297.377	745.71
297.602	-127.85
297.827	80.64
298.052	121.25
298.277	63.14
298.502	-0.1
298.727	-24.15
298.953	24.73
299.178	107.49
299.403	123.62
299.628	-40.33
299.852	-142.44
300.077	-1994.12
300.302	44.47
300.527	-16.75
300.752	57.63
300.977	313
301.202	726.23
301.426	-112.86
301.651	-68.33
301.876	408.33
302.101	-155.78
302.325	7.66
302.55	-51.99
302.775	-49.73
302.999	-2.02
303.224	-15.97
303.448	-13.49
303.673	-277.78
303.897	41.77
304.122	58.76
304.346	71.96
304.571	-30.4
304.795	158.5
305.019	-13.12
305.244	18.01
305.468	739.19
305.692	378.79
305.917	-129.75
306.141	-18.65
306.365	-62.3
306.589	-9.52
306.813	-79.32
307.038	-65.24
307.262	3.96
307.486	111.19
307.71	3225
307.934	75.7
308.158	-128.32
308.382	-96.41
308.606	-120.82
308.83	-50.98
309.054	-139.11
309.278	22.61
309.502	97.7
309.725	-60.69
309.949	-5.42
310.173	43.49
310.397	42.11
310.62	-185.07
310.844	98.19
311.068	-171.25
311.292	4.93
311.515	24.42
311.739	1004.17
311.962	21.69
312.186	13.66
312.41	-10.37
312.633	-58.05
312.857	56.54
313.08	-350
313.303	-99.36
313.527	12.52
313.75	-111.88
313.974	-38.92
314.197	-98.92
314.42	71.82
314.644	164.26
314.867	1.35
315.09	-108.32
315.313	27.44
315.536	-3.23
315.76	-0.34
315.983	12.53
316.206	-52.18
316.429	64.38
316.652	103.56
316.875	48.69
317.098	49.63
317.321	-25
317.544	-228.13
317.767	-3.18
317.99	-48.27
318.213	-20.36
318.436	73.73
318.658	-29.14
318.881	-91.1
319.104	-9.52
319.327	15.75
319.55	-62.55
319.772	116.43
319.995	473.33
320.218	-7.22
320.44	320.63
320.663	55.84
320.885	-109.14
321.108	6.1
321.331	15.07
321.553	-115.51
321.776	-12375
321.998	47.25
322.22	-20.04
322.443	-5.3
322.665	-23.56
322.888	39.41
323.11	-30.2
323.332	-38.27
323.555	204.41
323.777	-49.71
323.999	-39.92
324.221	7.84
324.443	-76.55
324.666	-81.5
324.888	54.44
325.11	-204.96
325.332	97.49
325.554	-80.19
325.776	7.65
325.998	-123.26
326.22	-57.97
326.442	-41.53
326.664	-13.25
326.886	-86.32
327.108	44.48
327.33	155.56
327.551	-3.83
327.773	-3.09
327.995	-43.95
328.217	17.62
328.439	42.49
328.66	22.95
328.882	-226.45
329.104	-930.36
329.325	-11.84
329.547	61.99
329.769	42.57
329.99	-72.29
330.212	811.48
330.433	-67.97
330.655	-81.28
330.876	25.31
331.098	577.05
331.319	19.26
331.54	-45.34
331.762	15.24
331.983	31.12
332.204	-6.05
332.426	-19.26
332.647	292.7
332.868	30.27
333.089	-134.83
333.311	32.54
333.532	64.62
333.753	-1606.67
333.974	32.35
334.195	-109.78
334.416	28.52
334.637	-49.46
334.858	-63.13
335.079	-84.87
335.3	-32.5
335.521	-131.16
335.742	-152.17
335.963	-7.63
336.184	104.85
336.405	25.44
336.626	24.84
336.846	123.1
337.067	-34.29
337.288	29.47
337.509	-1260
337.729	47.96
337.95	-1000
338.171	-209.55
338.391	62.09
338.612	59.31
338.833	895.83
339.053	23.4
339.274	-33.28
339.494	23.21
339.715	382.54
339.935	3.8
340.156	65.89
340.376	30.07
340.596	11.78
340.817	2120
341.037	3.8
341.257	-2.97
341.478	33.07
341.698	98.64
341.918	-463.75
342.138	-20.04
342.359	181.18
342.579	-66.42
342.799	-15.15
343.019	-0.16
343.239	-21.7
343.459	-66.31
343.679	82.06
343.899	36.79
344.119	22.16
344.339	-29.11
344.559	-0.12
344.779	118.79
344.999	-0.12
345.219	58.43
345.439	-75.33
345.658	7522.22
345.878	327.08
346.098	-39.87
346.318	-60.16
346.537	3372.73
346.757	192.17
346.977	-2.28
347.196	4.93
347.416	17.06
347.636	-71.76
347.855	15.97
348.075	63.64
348.294	-138.75
348.514	-61.11
348.733	42.36
348.953	-274.74
349.172	-110.22
349.392	-85.56
349.611	29.32
349.83	-145.11
350.05	-191.89
350.269	-35.13
350.488	50.36
350.707	524.14
350.927	16.7
351.146	47.34
351.365	-21.59
351.584	78.41
351.803	-17.07
352.023	-4.05
352.242	12.17
352.461	-225.78
352.68	139.44
352.899	45.74
353.118	-158.36
353.337	-29.92
353.556	-26.9
353.775	-43.06
353.993	-53.05
354.212	17.87
354.431	-15.04
354.65	52.54
354.869	2.7
355.088	41.6
355.306	96.19
355.525	-0.13
355.744	8.3
355.962	-21.51
356.181	704.05
356.4	22.51
356.618	-17.07
356.837	-69.54
357.055	-0.14
357.274	69.86
357.492	-518.52
357.711	42.56
357.929	23.59
358.148	-277.78
358.366	151.75
358.585	-14.04
358.803	-279.21
359.021	530.09
359.24	-35.43
359.458	-244.4
359.676	-1.36
359.894	49.64
360.113	65.44
360.331	22.17
360.549	1600
360.767	6.45
360.985	-146.27
361.203	2.29
361.421	44.7
361.639	40
361.857	74.26
362.075	-40.9
362.293	11.32
362.511	-201.9
362.729	24.46
362.947	4.07
363.165	-25
363.383	25.77
363.601	37.83
363.819	-53.05
364.036	-64.18
364.254	82.23
364.472	67.43
364.689	-88.17
364.907	50.51
365.125	178.12
365.342	-316.18
365.56	73.61
365.778	-10.79
365.995	-203.75
366.213	-231.18
366.43	-32.44
366.648	-70.14
366.865	36.18
367.083	39.08
367.3	-172.73
367.517	-143.18
367.735	-119.04
367.952	-41.56
368.17	0.9
368.387	51.32
368.604	41.72
368.821	66.9
369.039	51.04
369.256	-5.88
369.473	40.56
369.69	-76.32
369.907	-3600
370.124	3254.55
370.341	191.67
370.558	15.88
370.776	-8.6
370.993	55.24
371.21	-88.17
371.426	-0.22
371.643	-27.26
371.86	25.44
372.077	-63.1
372.294	-11.73
372.511	-6.64
372.728	-76.16
372.945	11.32
373.161	-5.95
373.378	-11.7
373.595	-107.42
373.811	65.15
374.028	43.39
374.245	8.44
374.461	44.94
374.678	44.45
374.895	-11.62
375.111	-16.74
375.328	40.89
375.544	1160.81
375.761	25.15
375.977	11.91
376.194	51.28
376.41	-72.51
376.626	-48.99
376.843	8.19
377.059	17.5
377.275	14.59
377.492	35.75
377.708	4.62
377.924	22.85
378.14	-19.26
378.357	32.23
378.573	-45.57
378.789	2.25
379.005	30.95
379.221	-163.27
379.437	56.87
379.653	-7.86
379.869	25.7
380.085	-90.23
380.301	23.43
380.517	15.93
380.733	0.94
380.949	-0.13
381.165	8.84
381.381	1.51
381.597	6.16
381.813	10.89
382.028	-15.74
382.244	-81.27
382.46	-29.76
382.676	-4.51
382.891	3.19
383.107	-22.74
383.323	30.63
383.538	-45.34
383.754	-7.86
383.969	23.09
384.185	19.26
384.4	-15.65
384.616	-49.87
384.831	42.95
385.047	-37.43
385.262	15.77
385.478	-27.17
385.693	34.63
385.909	27.84
386.124	10.47
386.339	-10.21
386.554	11.34
386.77	42.56
386.985	-21.17
387.2	45.18
387.415	49.52
387.631	-10.69
387.846	-2.72
388.061	7.11
388.276	-0.15
388.491	20.27
388.706	-54.67
388.921	-16.15
389.136	-10.57
389.351	14.18
389.566	-0.11
389.781	29.17
389.996	22.62
390.211	31.36
390.426	23.69
390.641	-26.04
390.855	-30.38
391.07	31.03
391.285	20.74
391.5	-39.48
391.714	37.01
391.929	19.02
392.144	-1.16
392.358	-5.15
392.573	-20.35
392.788	-15.99
393.002	-30.34
393.217	-7.67
393.431	-54.25
393.646	9.35
393.86	5.46
394.075	-16.68
394.289	-14
394.504	-5.88
394.718	15.14
394.933	-11.82
395.147	-14.23
395.361	3.23
395.576	19.75
395.79	-25.57
396.004	-6.83
396.218	-19.11
396.432	-7.76
396.647	24.52
396.861	16.68
397.075	14.5
397.289	-11.34
397.503	18.8
397.717	-0.03
397.931	-1.21
398.145	-20.88
398.359	-6.66
398.573	-6.55
398.787	14.84
399.001	4.18
399.215	15.78
399.429	-0.03
399.643	-5.88
399.857	-18.8
400.07	10
400.284	3.75
400.498	-13.68
400.712	-7.86
400.925	4.99
401.139	-6.47
401.353	-5.97
401.566	6.95
401.78	11.15
401.994	-9.43
402.207	2.16
402.421	-0.8
402.634	-5.9
402.848	8.33
403.061	-0.02
403.275	3.68
403.488	2.92
403.702	4.63
403.915	6.08
404.128	-0.85
404.342	-6.83
404.555	-5.67
404.768	7.78
404.982	2.99
405.195	-1.68
405.408	0.56
405.621	-1.63
405.835	4.84
406.048	1.13
406.261	1.22
406.474	5.03
406.687	-6.24
406.9	1.43
407.113	4.15
407.326	5.96
407.539	-3.94
407.752	0.14
407.965	4.01
408.178	0.27
408.391	10
408.604	3.96
408.817	2.93
409.029	4.65
409.242	-0.01
409.455	-0.92
409.668	-2.73
409.881	-0.94
410.093	-1.62
410.306	3.9
410.519	-1.31
410.731	-3.07
410.944	-1.04
411.157	1.85
411.369	1.85
411.582	0.51
411.794	-2.02
412.007	-2.69
412.219	1.49
412.432	1.27
412.644	1.07
412.857	0.09
413.069	4.67
413.281	4.3
413.494	3.61
413.706	2.01
413.918	1.99
414.131	0.44
414.343	-1.16
414.555	4.97
414.767	4.69
414.979	4.49
415.192	-1.34
415.404	-0.01
415.616	0.84
415.828	0.41
416.04	-0.5
416.252	4.93
416.464	-2
416.676	1.12
416.888	2
417.1	-2.66
417.312	3.98
417.524	4.65
417.736	-0.24
417.948	-1.11
418.159	-0.22
418.371	1.04
418.583	1.13
418.795	2.24
419.007	4.08
419.218	1.64
419.43	-0.68
419.642	-0.08
419.853	4.42
420.065	2.63
420.276	1.89
420.488	2.81
420.7	2.27
420.911	0.79
421.123	2.76
421.334	1.45
421.546	4.72
421.757	0.79
421.969	4.18
422.18	0.54
422.391	1.14
422.603	-0.46
422.814	4.58
423.025	2.68
423.237	4.31
423.448	3.66
423.659	4.61
423.87	0.12
424.082	1.51
424.293	3.55
424.504	5.64
424.715	5.24
424.926	0.51
425.137	0.06
425.348	3.78
425.559	3.44
425.77	2.14
425.981	4.45
426.192	4.97
426.403	1.73
426.614	2.01
426.825	2.47
427.036	4.33
427.247	1.82
427.458	3.72
427.668	2.75
427.879	3.61
428.09	3.95
428.301	2.93
428.511	0.66
428.722	1.08
428.933	1.61
429.143	3.88
429.354	3.53
429.565	1.22
429.775	1.8
429.986	2.07
430.196	2.52
430.407	2.08
430.617	2.54
430.828	2.79
431.038	3.39
431.249	2.54
431.459	5.23
431.669	4.01
431.88	5.47
432.09	5.26
432.3	5.05
432.511	1.95
432.721	5.35
432.931	4.34
433.141	2.31
433.351	3.6
433.562	3.06
433.772	5.77
433.982	4.12
434.192	5.59
434.402	6.19
434.612	3.31
434.822	1.71
435.032	4.47
435.242	6.95
435.452	3.57
435.662	3.75
435.872	4.59
436.082	5.41
436.292	6.79
436.502	7.25
436.711	4.34
436.921	6.04
437.131	6.81
437.341	6.4
437.551	8
437.76	6.71
437.97	6.33
438.18	3.67
438.389	7.45
438.599	7.32
438.808	6.41
439.018	4.95
439.228	8.13
439.437	8.34
439.647	6.68
439.856	6.82
440.066	6.39
440.275	8.26
440.484	8.35
440.694	9.78
440.903	10.74
441.113	9.86
441.322	9.3
441.531	12.24
441.741	9.47
441.95	11.1
442.159	11.33
442.368	13.32
442.577	13.13
442.787	11.53
442.996	12.61
443.205	8.51
443.414	10.06
443.623	13.34
443.832	12.67
444.041	12.03
444.25	14.82
444.459	15.33
444.668	12.02
444.877	15.13
445.086	13.07
445.295	16.26
445.504	15.42
445.713	15.51
445.922	13.75
446.13	12.4
446.339	13.29
446.548	13.17
446.757	16.55
446.965	14.47
447.174	13.7
447.383	17.42
447.591	13.49
447.8	16.86
448.009	13.3
448.217	19.63
448.426	16.77
448.634	17.25
448.843	14.44
449.051	14.48
449.26	17.45
449.468	21.42
449.677	18.59
449.885	19.06
450.093	17.12
450.302	13.9
450.51	17.9
450.719	14.97
450.927	16.14
451.135	17.72
451.343	16.44
451.552	19.06
451.76	15.92
451.968	16.5
452.176	16.7
452.384	16.79
452.592	13.97
452.8	17.16
453.009	12.71
453.217	16.94
453.425	13.66
453.633	12.29
453.841	10.74
454.049	14.73
454.257	14.94
454.464	17.03
454.672	14.4
454.88	10.63
455.088	13.07
455.296	14.53
455.504	15.07
455.711	10.44
455.919	13.98
456.127	15.19
456.335	13.64
456.542	10.44
456.75	11.05
456.958	10.27
457.165	10.88
457.373	9.4
457.581	10.16
457.788	4.36
457.996	13.42
458.203	11.26
458.411	11.74
458.618	9.44
458.826	11.14
459.033	10.87
459.24	7.11
459.448	9.62
459.655	8.08
459.863	8.58
460.07	9.23
460.277	6.03
460.484	10.71
460.692	8.5
460.899	6
461.106	8.29
461.313	8.66
461.52	6.55
461.728	6.17
461.935	9.7
462.142	5.58
462.349	10.28
462.556	6.3
462.763	5.53
462.97	4.5
463.177	8.8
463.384	5.23
463.591	6.1
463.798	7.8
464.005	5.86
464.212	6.95
464.418	8.15
464.625	5.34
464.832	5.83
465.039	2.69
465.246	6.35
465.452	6.27
465.659	7.36
465.866	2.64
466.072	2.9
466.279	6.46
466.486	6.62
466.692	5.37
466.899	6
467.105	3.23
467.312	5.17
467.519	5.43
467.725	2.88
467.931	2.99
468.138	4.56
468.344	2.89
468.551	2.82
468.757	4.33
468.964	6.35
469.17	3.05
469.376	5.14
469.583	4.55
469.789	3.46
469.995	3.2
470.201	4.78
470.408	3.51
470.614	2.76
470.82	2.23
471.026	1.74
471.232	1.02
471.438	2.71
471.644	3.93
471.85	4.61
472.056	1.97
472.262	4.39
472.468	3.5
472.674	0.59
472.88	4.71
473.086	1.09
473.292	3.76
473.498	4.71
473.704	1.18
473.91	3.21
474.116	2.59
474.321	2.73
474.527	2.77
474.733	2.4
474.939	2.15
475.144	3.98
475.35	1.91
475.556	-0.05
475.761	0.78
475.967	3.98
476.173	2.21
476.378	3.18
476.584	3.9
476.789	1.84
476.995	3.82
477.2	1.66
477.406	2.65
477.611	2.04
477.817	1.14
478.022	0.23
478.227	1.86
478.433	2.86
478.638	2.35
478.843	3.06
479.049	1.99
479.254	3.15
479.459	0.54
479.664	2.02
479.87	2.6
480.075	2.36
480.28	1.97
480.485	2.09
480.69	3.31
480.895	1.9
481.1	2.08
481.306	3.06
481.511	2.44
481.716	2.73
481.921	2.39
482.126	3.6
482.33	1.29
482.535	0.78
482.74	2.29
482.945	2.28
483.15	1.59
483.355	2.22
483.56	1.46
483.765	0.78
483.969	2.09
484.174	3.15
484.379	2.21
484.583	0.98
484.788	0.78
484.993	1.73
485.197	2.05
485.402	2.78
485.607	2.48
485.811	1.2
486.016	3.42
486.22	3.26
486.425	2.8
486.629	0.95
486.834	2.2
487.038	1.62
487.243	2.72
487.447	1.01
487.652	1.52
487.856	1.69
488.06	1.12
488.265	2.66
488.469	1.82
488.673	1.56
488.877	0.95
489.082	1.84
489.286	3.02
489.49	1.84
489.694	1.67
489.898	2.25
490.102	1.44
490.307	0.83
490.511	1.17
490.715	-0.03
490.919	1.54
491.123	0.97
491.327	2.86
491.531	1.2
491.735	1.73
491.939	1.05
492.143	2.01
492.346	1.34
492.55	0.58
492.754	1.07
492.958	1.65
493.162	0.91
493.366	1.3
493.569	2.49
493.773	0.87
493.977	2.38
494.18	2.39
494.384	0.67
494.588	2.25
494.791	0.57
494.995	1.7
495.199	2.07
495.402	2.2
495.606	0.56
495.809	2.12
496.013	1.3
496.216	1.76
496.42	0.78
496.623	1.13
496.827	2.04
497.03	0.91
497.233	1.73
497.437	-0.09
497.64	0.89
497.843	0.56
498.047	1.42
498.25	1.52
498.453	2.29
498.656	-0.04
498.86	1.58
499.063	1.77
499.266	0.19
499.469	1.41
499.672	1.85
499.875	0.66
500.078	0.54
500.281	0.76
500.484	1.23
500.687	0.72
500.89	1.79
501.093	1.9
501.296	2.18
501.499	0.31
501.702	2.21
501.905	1.75
502.108	2.43
502.311	1.53
502.514	1.18
502.716	2.07
502.919	1.76
503.122	1.2
503.325	1.07
503.527	0.96
503.73	1.53
503.933	0.67
504.135	1.38
504.338	1.13
504.541	0.81
504.743	1.76
504.946	1.97
505.148	1.53
505.351	1.68
505.553	1.37
505.756	1.64
505.958	1.38
506.161	1.74
506.363	1.43
506.565	1.24
506.768	1.4
506.97	1.04
507.172	0.83
507.375	1.02
507.577	1.03
507.779	1.62
507.982	1.55
508.184	1.99
508.386	1.31
508.588	0.96
508.79	1.26
508.993	1.56
509.195	0.95
509.397	1.61
509.599	1.64
509.801	0.3
510.003	1.54
510.205	1.73
510.407	1.17
510.609	1.58
510.811	1.43
511.013	1.7
511.215	0.87
511.417	0.9
511.618	0.92
511.82	1.64
512.022	1.56
512.224	1.35
512.426	1.23
512.627	0.68
512.829	1.3
513.031	1.66
513.233	1.72
513.434	1.51
513.636	0.58
513.838	1.61
514.039	1.55
514.241	1.49
514.442	1.82
514.644	1.25
514.845	1.59
515.047	1.69
515.248	1.46
515.45	1.78
515.651	1.3
515.853	1.68
516.054	1.31
516.256	0.83
516.457	2.3
516.658	1.7
516.86	1
517.061	0.89
517.262	0.95
517.463	1.48
517.665	1.72
517.866	1.64
518.067	1.7
518.268	1.98
518.469	0.93
518.67	0.99
518.872	1.04
519.073	1.55
519.274	1.36
519.475	1.44
519.676	1.34
519.877	1.11
520.078	1.8
520.279	1.63
520.48	1.42
520.681	1.27
520.881	1.72
521.082	1.92
521.283	1.75
521.484	1.23
521.685	1.76
521.886	1.99
522.086	1.5
522.287	1.48
522.488	1.59
522.689	1.7
522.889	1.54
523.09	1.3
523.291	1.94
523.491	1.59
523.692	1.59
523.892	1.61
524.093	1.25
524.294	1.27
524.494	1.41
524.695	1.65
524.895	1.51
525.096	1.75
525.296	1.68
525.496	1.72
525.697	1.31
525.897	2.17
526.098	1.92
526.298	1.67
526.498	2.15
526.699	1.64
526.899	1.7
527.099	1.56
527.299	1.51
527.499	2.02
527.7	1.78
527.9	1.76
528.1	2.18
528.3	2.03
528.5	1.88
528.7	1.25
528.9	1.58
529.1	1.57
529.3	2.13
529.5	1.97
529.7	1.45
529.9	1.9
530.1	1.75
530.3	1.87
530.5	1.85
530.7	2.02
530.9	1.89
531.1	1.47
531.3	1.86
531.499	1.75
531.699	1.89
531.899	1.57
532.099	1.6
532.298	2.18
532.498	1.75
532.698	2.32
532.897	1.53
533.097	1.69
533.297	2.1
533.496	1.87
533.696	2.15
533.895	1.71
534.095	1.86
534.294	2.19
534.494	1.56
534.693	1.9
534.893	2.03
535.092	1.72
535.292	1.96
535.491	2.22
535.69	1.38
535.89	1.29
536.089	2.16
536.288	1.88
536.488	1.74
536.687	2.41
536.886	1.84
537.085	2.59
537.285	2.16
537.484	1.98
537.683	2.13
537.882	1.47
538.081	1.78
538.28	2.19
538.479	2.22
538.678	1.8
538.877	2.1
539.076	2.01
539.275	2.06
539.474	1.94
539.673	2.33
539.872	1.88
540.071	2.38
540.27	2.31
540.469	2.79
540.668	2.03
540.867	2.41
541.065	2.28
541.264	1.95
541.463	2.24
541.662	2.24
541.861	2.33
542.059	2.01
542.258	1.9
542.457	2.44
542.655	1.71
542.854	2.66
543.052	2.69
543.251	2.31
543.45	2.74
543.648	2.49
543.847	2.68
544.045	1.97
544.244	2.25
544.442	2.69
544.641	2.39
544.839	2.39
545.037	2.35
545.236	2.52
545.434	2.63
545.632	2.61
545.831	2.56
546.029	2.5
546.227	2.42
546.426	2.51
546.624	2.31
546.822	2.53
547.02	2.36
547.218	2.36
547.417	2.65
547.615	2.42
547.813	2.73
548.011	2.82
548.209	2.94
548.407	3.01
548.605	2.97
548.803	2.41
549.001	2.77
549.199	2.68
549.397	2.68
549.595	2.66
549.793	2.86
549.991	2.96
550.189	3.09
550.387	2.93
550.584	3.28
550.782	2.88
550.98	3.11
551.178	3.1
551.376	3.14
551.573	2.71
551.771	2.84
551.969	3.32
552.166	2.77
552.364	2.82
552.562	2.61
552.759	3.08
552.957	2.95
553.154	3.06
553.352	2.86
553.55	2.99
553.747	2.96
553.945	3
554.142	3.47
554.339	3.38
554.537	3.13
554.734	3.35
554.932	3.25
555.129	3.32
555.326	3.36
555.524	3.43
555.721	3.15
555.918	3.42
556.116	2.78
556.313	3.68
556.51	3.61
556.707	3.24
556.904	3.14
557.102	3.22
557.299	3.37
557.496	3.36
557.693	3.47
557.89	3.71
558.087	3.38
558.284	3.3
558.481	3.66
558.678	3.8
558.875	3.77
559.072	3.62
559.269	3.6
559.466	3.88
559.663	3.76
559.86	4.08
560.057	4
560.254	3.72
560.45	4.14
560.647	3.59
560.844	3.69
561.041	3.96
561.237	3.44
561.434	4.41
561.631	4.46
561.828	3.97
562.024	3.97
562.221	3.93
562.418	4.42
562.614	4.27
562.811	4.49
563.007	4.3
563.204	4.24
563.4	4.35
563.597	4.34
563.793	4.22
563.99	4.32
564.186	4.67
564.383	4.6
564.579	4.49
564.775	4.43
564.972	5.05
565.168	4.45
565.365	4.73
565.561	5.18
565.757	5.11
565.953	4.92
566.15	5.24
566.346	4.82
566.542	5.17
566.738	4.86
566.934	5.07
567.131	5.19
567.327	5.35
567.523	4.99
567.719	5
567.915	5.67
568.111	5.31
568.307	5.62
568.503	5.22
568.699	5.01
568.895	5.53
569.091	5.52
569.287	5.38
569.483	5.33
569.679	5.47
569.875	5.43
570.07	5.46
570.266	5.73
570.462	5.79
570.658	5.63
570.854	5.64
571.049	5.68
571.245	5.78
571.441	6.07
571.636	5.9
571.832	6.1
572.028	5.74
572.223	5.92
572.419	5.68
572.615	6.04
572.81	6.11
573.006	5.97
573.201	5.89
573.397	6.55
573.592	6.29
573.788	6.37
573.983	6.48
574.179	6.21
574.374	6.38
574.569	7.22
574.765	6.69
574.96	6.8
575.156	6.4
575.351	6.68
575.546	6.66
575.741	6.69
575.937	6.74
576.132	7.04
576.327	7.1
576.522	6.83
576.718	7.04
576.913	6.74
577.108	7.13
577.303	7.12
577.498	7.25
577.693	7.18
577.888	7.48
578.083	7.74
578.278	7.43
578.473	7.37
578.668	7.68
578.863	7.51
579.058	7.45
579.253	7.75
579.448	7.52
579.643	7.74
579.838	7.68
580.033	7.88
580.227	8.53
580.422	8.01
580.617	7.94
580.812	7.99
581.006	8.11
581.201	8.37
581.396	8.39
581.591	8.32
581.785	8.81
581.98	8.91
582.175	9.07
582.369	9.23
582.564	9.49
582.758	9.34
582.953	9.27
583.147	9.38
583.342	9.31
583.536	9.29
583.731	9.72
583.925	9.81
584.12	9.48
584.314	9.9
584.509	9.58
584.703	9.76
584.897	9.56
585.092	9.48
585.286	9.91
585.48	9.68
585.674	9.75
585.869	10
586.063	9.93
586.257	10.06
586.451	10.08
586.646	10.33
586.84	10.17
587.034	10.04
587.228	10.35
587.422	10.36
587.616	10.37
587.81	10.43
588.004	10.52
588.198	10.13
588.392	10.51
588.586	10.91
588.78	10.85
588.974	10.74
589.168	11.13
589.362	11.53
589.556	11.11
589.75	11.43
589.944	11.64
590.137	11.12
590.331	11.41
590.525	11.38
590.719	11.18
590.913	11.51
591.106	11.78
591.3	11.83
591.494	12.47
591.687	11.94
591.881	11.93
592.075	12.23
592.268	12.28
592.462	11.94
592.655	12.24
592.849	12.06
593.043	12.58
593.236	12.64
593.43	12.3
593.623	12.49
593.817	12.5
594.01	12.69
594.203	13.02
594.397	12.89
594.59	13.2
594.784	13.14
594.977	13.69
595.17	13.63
595.364	13.46
595.557	14
595.75	13.58
595.943	14.11
596.137	13.35
596.33	13.42
596.523	13.39
596.716	13.45
596.909	14.02
597.102	13.9
597.296	14.15
597.489	14.1
597.682	14.28
597.875	14.01
598.068	13.81
598.261	13.76
598.454	13.7
598.647	13.68
598.84	14.09
599.033	13.92
599.226	13.89
599.419	14.08
599.611	14
599.804	14.32
599.997	14.87
600.19	14.4
600.383	14.73
600.576	14.98
600.768	14.79
600.961	14.5
601.154	14.18
601.347	14.55
601.539	14.88
601.732	14.98
601.925	15.12
602.117	15.27
602.31	14.84
602.502	15.63
602.695	15.37
602.888	14.92
603.08	15.44
603.273	14.81
603.465	15.68
603.658	15.45
603.85	15.26
604.043	15.12
604.235	15.29
604.427	15.31
604.62	15.13
604.812	15.12
605.004	15.34
605.197	15.72
605.389	16.08
605.581	15.7
605.774	16.21
605.966	15.76
606.158	15.97
606.35	15.81
606.543	16.16
606.735	16.07
606.927	16.42
607.119	16.29
607.311	16.76
607.503	16.44
607.695	16.82
607.887	16.76
608.079	16.89
608.271	16.49
608.463	16.91
608.655	16.84
608.847	17.24
609.039	17.37
609.231	16.93
609.423	16.98
609.615	17
609.807	16.61
609.999	17.3
610.191	17.21
610.382	16.92
610.574	16.79
610.766	16.73
610.958	16.97
611.15	16.6
611.341	17
611.533	17.05
611.725	17.22
611.916	17.09
612.108	17.39
612.3	17.02
612.491	16.8
612.683	17.01
612.874	17.38
613.066	17.27
613.257	17.74
613.449	17.5
613.64	16.74
613.832	17.03
614.023	17.37
614.215	17.86
614.406	17.96
614.598	17.84
614.789	18.11
614.98	17.6
615.172	17.63
615.363	17.63
615.554	17.55
615.746	17.71
615.937	17.62
616.128	18.03
616.319	18.1
616.511	17.38
616.702	17.99
616.893	17.77
617.084	17.79
617.275	17.85
617.466	18.4
617.658	18.58
617.849	18.7
618.04	17.84
618.231	18.07
618.422	17.59
618.613	17.84
618.804	17.54
618.995	17.9
619.186	17.54
619.377	17.68
619.568	17.57
619.758	17.5
619.949	17.7
620.14	17.37
620.331	17.49
620.522	18.2
620.713	17.78
620.903	18.12
621.094	17.98
621.285	17.84
621.476	18.05
621.666	17.75
621.857	17.84
622.048	18.15
622.238	18.32
622.429	18.91
622.62	18.78
622.81	18.53
623.001	18.71
623.191	18.85
623.382	18.27
623.572	18.17
623.763	18.06
623.953	17.71
624.144	17.74
624.334	18.19
624.525	18.37
624.715	18.75
624.905	18.66
625.096	18.68
625.286	18.02
625.477	17.91
625.667	18.67
625.857	17.9
626.047	17.54
626.238	17.68
626.428	18.25
626.618	18.01
626.808	18.37
626.999	18.15
627.189	18.32
627.379	18.05
627.569	17.92
627.759	18.19
627.949	18.18
628.139	17.59
628.329	18.25
628.519	18.7
628.709	18.24
628.899	18.28
629.089	17.66
629.279	17.8
629.469	17.35
629.659	17.88
629.849	17.52
630.039	17.51
630.229	17.67
630.419	17.33
630.609	17.69
630.798	17.61
630.988	17.57
631.178	17.71
631.368	17.41
631.557	17.85
631.747	17.78
631.937	17.93
632.127	18.38
632.316	18.81
632.506	18.53
632.696	18.53
632.885	18.66
633.075	18.64
633.264	18.55
633.454	18.8
633.643	18.45
633.833	18.45
634.022	18.14
634.212	18.34
634.401	18.39
634.591	18.29
634.78	18.11
634.97	18.31
635.159	18.49
635.348	18.67
635.538	18.63
635.727	18.46
635.916	18.77
636.106	18.61
636.295	18.08
636.484	17.79
636.674	17.88
636.863	17.98
637.052	17.86
637.241	17.66
637.43	17.54
637.619	17.19
637.809	17.82
637.998	18.16
638.187	18.66
638.376	18.23
638.565	18.42
638.754	18.45
638.943	18.32
639.132	17.7
639.321	17.62
639.51	17.4
639.699	17.31
639.888	16.74
640.077	17.63
640.266	17.12
640.455	17.49
640.643	17.29
640.832	17.16
641.021	17.6
641.21	17.09
641.399	17.35
641.587	17.69
641.776	18.17
641.965	17.85
642.154	18.13
642.342	18.05
642.531	18.53
642.72	17.78
642.908	18.11
643.097	17.97
643.286	18.16
643.474	17.83
643.663	17.61
643.851	17.58
644.04	17.55
644.228	17.46
644.417	17.94
644.605	17.88
644.794	18.09
644.982	18.01
645.171	18.02
645.359	17.98
645.547	18.36
645.736	17.49
645.924	17.54
646.112	17.1
646.301	17.03
646.489	17.11
646.677	16.7
646.866	16.87
647.054	16.84
647.242	17.32
647.43	17.28
647.618	17.19
647.807	17.45
647.995	17.08
648.183	17.11
648.371	16.79
648.559	16.98
648.747	17.29
648.935	17.77
649.123	17.7
649.311	17.77
649.499	18.15
649.687	17.32
649.875	17.08
650.063	17.2
650.251	17.02
650.439	17.19
650.627	17.3
650.815	17.26
651.003	17.03
651.191	17.2
651.378	17.04
651.566	17.39
651.754	17.01
651.942	17.35
652.13	17.19
652.317	17.04
652.505	17.1
652.693	16.84
652.88	16.85
653.068	16.13
653.256	16.52
653.443	16.72
653.631	16.63
653.819	16.45
654.006	17.14
654.194	17.13
654.381	16.93
654.569	16.95
654.756	16.97
654.944	16.9
655.131	17.32
655.319	17.06
655.506	16.75
655.693	17.17
655.881	17.22
656.068	17.4
656.256	17.22
656.443	17.36
656.63	17.36
656.818	17.52
657.005	17.35
657.192	17.52
657.379	17.12
657.567	17.68
657.754	17.4
657.941	17.55
658.128	16.93
658.315	16.92
658.502	16.92
658.69	16.78
658.877	17.52
659.064	17.6
659.251	17.35
659.438	17.41
659.625	17.37
659.812	16.81
659.999	17.04
660.186	17.18
660.373	16.92
660.56	16.95
660.747	17.07
660.934	17.35
661.121	17.49
661.308	17.33
661.494	16.93
661.681	17.07
661.868	17
662.055	17.36
662.242	16.67
662.428	17.01
662.615	16.77
662.802	17.59
662.989	17.33
663.175	18.06
663.362	18.02
663.549	17.74
663.735	17.51
663.922	17.74
664.109	17.1
664.295	17.41
664.482	17.66
664.668	16.96
664.855	17.18
665.041	17.25
665.228	16.98
665.414	17.07
665.601	17.11
665.787	17.29
665.974	16.96
666.16	16.73
666.347	16.57
666.533	16.75
666.719	16.63
666.906	16.73
667.092	17.03
667.278	17.02
667.465	17.42
667.651	17.79
667.837	17.37
668.023	17.24
668.21	17.43
668.396	17.52
668.582	17.27
668.768	17.15
668.954	17.22
669.14	17.28
669.327	18.03
669.513	17.67
669.699	17.69
669.885	17.52
670.071	18.44
670.257	17.78
670.443	17.51
670.629	17.33
670.815	17.31
671.001	17
671.187	17.39
671.373	17.47
671.559	17.55
671.744	17.79
671.93	17.61
672.116	17.48
672.302	17.77
672.488	17.81
672.674	17.47
672.859	18.12
673.045	17.78
673.231	17.71
673.417	17.85
673.602	17.54
673.788	17.56
673.974	17.36
674.159	17.47
674.345	17.37
674.531	17.27
674.716	17.06
674.902	17.48
675.087	17.8
675.273	17.43
675.459	17.92
675.644	17.95
675.83	17.73
676.015	17.26
676.2	17.53
676.386	17.15
676.571	16.95
676.757	17.22
676.942	17.22
677.128	17.08
677.313	16.54
677.498	16.31
677.684	17.05
677.869	17.06
678.054	17.93
678.24	18.02
678.425	18.15
678.61	17.81
678.795	18.08
678.98	17.71
679.166	17.88
679.351	17.99
679.536	17.07
679.721	17.45
679.906	17.68
680.091	17.31
680.276	17.42
680.461	17.35
680.647	17.1
680.832	17.68
681.017	17.37
681.202	17.77
681.387	17.7
681.572	17.39
681.756	17.95
681.941	17.42
682.126	17.39
682.311	17.14
682.496	17.27
682.681	17.32
682.866	17.27
683.051	16.95
683.235	17.33
683.42	18.2
683.605	18.02
683.79	18.33
683.974	17.85
684.159	17.45
684.344	17.19
684.529	17.26
684.713	17.49
684.898	17.06
685.083	17.46
685.267	16.88
685.452	17.27
685.636	17.36
685.821	17.42
686.005	17.38
686.19	17.43
686.375	17.53
686.559	17.59
686.744	16.95
686.928	17.23
687.112	16.89
687.297	17.29
687.481	17.43
687.666	17.84
687.85	17.29
688.034	17.04
688.219	17.39
688.403	17.11
688.587	16.98
688.772	17.52
688.956	17.42
689.14	17.17
689.324	17.33
689.509	16.95
689.693	16.89
689.877	16.71
690.061	16.64
690.245	17.37
690.43	17.02
690.614	17.36
690.798	17.16
690.982	16.9
691.166	16.86
691.35	16.64
691.534	16.49
691.718	16.61
691.902	16.87
692.086	16.73
692.27	17.08
692.454	17.11
692.638	17.49
692.822	18.07
693.006	17.32
693.19	17.65
693.373	17.2
693.557	17.19
693.741	16.85
693.925	16.67
694.109	16.62
694.293	17.33
694.476	16.56
694.66	16.94
694.844	17.09
695.027	17.29
695.211	17.54
695.395	17.28
695.578	17.32
695.762	16.77
695.946	17.03
696.129	16.5
696.313	16.55
696.497	16.82
696.68	16.48
696.864	16.25
697.047	16.49
697.231	16.79
697.414	16.65
697.598	15.48
697.781	15.86
697.965	15.82
698.148	15.8
698.331	15.97
698.515	16.56
698.698	16.01
698.881	15.97
699.065	16.24
699.248	16.03
699.431	16.84
699.615	16.56
699.798	15.98
699.981	16.06
700.165	16.03
700.348	15.92
700.531	16.23
700.714	15.64
700.897	15.58
701.08	15.68
701.264	15.8
701.447	15.78
701.63	15.82
701.813	16.63
701.996	16.84
702.179	16.61
702.362	17.02
702.545	16.68
702.728	16.42
702.911	16.65
703.094	16.52
703.277	16.39
703.46	17.28
703.643	17.07
703.826	16.27
704.009	16.6
704.191	16.15
704.374	16.22
704.557	15.76
704.74	16.25
704.923	15.86
705.106	15.86
705.288	15.57
705.471	15.78
705.654	15.87
705.837	15.82
706.019	15.84
706.202	16.43
706.385	16.05
706.567	15.71
706.75	16.34
706.932	15.26
707.115	15.44
707.298	14.93
707.48	14.69
707.663	14.91
707.845	15.54
708.028	15.64
708.21	15.73
708.393	15.79
708.575	15.66
708.758	15.59
708.94	16.07
709.123	16.33
709.305	15.92
709.487	16.25
709.67	16.07
709.852	15.66
710.034	15.49
710.217	15.06
710.399	15.07
710.581	15.49
710.764	15.84
710.946	15.44
711.128	15.78
711.31	14.94
711.492	15.21
711.675	15.61
711.857	15.77
712.039	15.59
712.221	15.78
712.403	15.69
712.585	15.56
712.767	15.31
712.949	15.51
713.131	16.17
713.314	15.43
713.496	15.79
713.678	15.67
713.86	15.4
714.041	15.31
714.223	16.09
714.405	15.36
714.587	15.35
714.769	15.23
714.951	15.4
715.133	15.41
715.315	15.71
715.497	15.66
715.678	15.25
715.86	15.7
716.042	15.24
716.224	15.57
716.406	15.32
716.587	15.36
716.769	14.95
716.951	15.21
717.132	15.39
717.314	15.49
717.496	15.03
717.677	15.53
717.859	15.46
718.041	14.7
718.222	14.29
718.404	14.73
718.585	14.69
718.767	14.8
718.948	14.72
719.13	15.23
719.311	15.54
719.493	14.94
719.674	14.69
719.856	14.72
720.037	14.66
720.219	14.6
720.4	14.6
720.581	14.32
720.763	14.85
720.944	14.9
721.125	14.68
721.307	14.95
721.488	14.57
721.669	14.73
721.85	14.67
722.032	14.37
722.213	14.45
722.394	14.44
722.575	14.33
722.756	14.68
722.938	14.39
723.119	14.36
723.3	14.17
723.481	14.4
723.662	13.67
723.843	13.55
724.024	13.79
724.205	14.48
724.386	13.98
724.567	14.55
724.748	14.72
724.929	14.47
725.11	14.51
725.291	15
725.472	15.2
725.653	15.22
725.834	14.87
726.015	14.95
726.196	14.31
726.377	14.69
726.557	14.51
726.738	15.21
726.919	14.46
727.1	14.46
727.281	13.83
727.461	14.21
727.642	13.99
727.823	13.56
728.004	13.58
728.184	14.22
728.365	14.28
728.546	13.88
728.726	14.3
728.907	13.77
729.087	13.51
729.268	13.46
729.449	13.71
729.629	14.06
729.81	13.31
729.99	13.55
730.171	13.03
730.351	13.84
730.532	13.75
730.712	13.34
730.893	13.49
731.073	13.21
731.253	12.91
731.434	13.3
731.614	13.31
731.795	13.43
731.975	12.84
732.155	13.76
732.336	13.89
732.516	13.72
732.696	13.8
732.876	13.94
733.057	13.85
733.237	13.19
733.417	13.69
733.597	13.17
733.778	13
733.958	13.21
734.138	13.17
734.318	13.05
734.498	13.2
734.678	12.74
734.858	13.2
735.038	13.27
735.218	13.55
735.398	13.09
735.579	13.05
735.759	13.31
735.939	13.84
736.119	13.93
736.298	13.8
736.478	13.37
736.658	13.61
736.838	13.25
737.018	13.92
737.198	13.79
737.378	13.6
737.558	13.75
737.738	13.5
737.917	13.35
738.097	12.68
738.277	13.97
738.457	13.58
738.637	12.59
738.816	12.82
738.996	13.15
739.176	13.11
739.355	13.08
739.535	12.53
739.715	13.15
739.894	13.14
740.074	13.03
740.254	12.57
740.433	12.36
740.613	12.3
740.792	12.5
740.972	12.74
741.151	12.35
741.331	12.68
741.51	12.84
741.69	13.36
741.869	13.28
742.049	12.96
742.228	12.83
742.408	12.4
742.587	12.75
742.766	12.59
742.946	13.01
743.125	13.12
743.305	12.9
743.484	13.01
743.663	13.28
743.842	12.78
744.022	11.88
744.201	12.29
744.38	12.7
744.56	12.83
744.739	12.95
744.918	12.89
745.097	12.35
745.276	12.25
745.455	12.65
745.635	12.65
745.814	13.22
745.993	13.61
746.172	12.9
746.351	12.89
746.53	12.96
746.709	13.47
746.888	13.37
747.067	12.78
747.246	13.29
747.425	12.22
747.604	12.52
747.783	12.84
747.962	12.32
748.141	13.23
748.32	13.23
748.499	13.31
748.677	12.8
748.856	12.43
749.035	12.52
749.214	13.01
749.393	12.79
749.572	12.54
749.75	12.7
749.929	12.33
750.108	12.39
750.287	12.62
750.465	12.1
750.644	12.33
750.823	12.06
751.001	12.3
751.18	12.25
751.359	11.6
751.537	12.38
751.716	11.99
751.894	11.37
752.073	12.12
752.251	11.75
752.43	12.01
752.609	12.72
752.787	12.04
752.966	11.24
753.144	11.84
753.322	10.54
753.501	11.32
753.679	11.36
753.858	11.47
754.036	11.24
754.215	10.58
754.393	10.8
754.571	11.01
754.75	11.11
754.928	11.44
755.106	11.18
755.284	11.49
755.463	12.18
755.641	12.07
755.819	11.78
755.997	12.63
756.176	11.76
756.354	11.77
756.532	11.86
756.71	11.84
756.888	11.57
757.066	11.98
757.245	12.21
757.423	10.98
757.601	10.65
757.779	10.52
757.957	11.24
758.135	11.36
758.313	11.31
758.491	11.1
758.669	11.38
758.847	10.84
759.025	11.67
759.203	11.35
759.381	11.38
759.559	11.46
759.737	11
759.915	11.73
760.092	11.5
760.27	11.18
760.448	11.56
760.626	11.25
760.804	11.63
760.981	11.27
761.159	11.78
761.337	12.08
761.515	11.29
761.692	11.46
761.87	11.04
762.048	10.68
762.226	11.23
762.403	11.5
762.581	11.4
762.759	10.89
762.936	11.62
763.114	12.18
763.291	11.03
763.469	11.66
763.647	11.87
763.824	10.84
764.002	11.76
764.179	10.98
764.357	11.16
764.534	10.59
764.712	11.08
764.889	11.38
765.066	10.68
765.244	10.34
765.421	10.28
765.599	10.94
765.776	11.02
765.953	10.74
766.131	11.14
766.308	10.59
766.485	11.46
766.663	11.64
766.84	10.93
767.017	11.11
767.194	10.76
767.372	10.79
767.549	11.11
767.726	10.67
767.903	10.49
768.081	9.89
768.258	10.17
768.435	10.69
768.612	10.48
768.789	9.97
768.966	10.52
769.143	10.52
769.32	10.94
769.497	11.67
769.674	10.49
769.851	10.16
770.028	10.83
770.205	11.22
770.382	10.38
770.559	10.79
770.736	10.3
770.913	11.21
771.09	10.47
771.267	10.42
771.444	10.89
771.621	10.93
771.798	10.76
771.975	10.4
772.151	11.6
772.328	10.97
772.505	9.88
772.682	9.75
772.859	10.79
773.035	10.01
773.212	9.63
773.389	10.36
773.565	10.63
773.742	10.3
773.919	10.27
774.096	9.65
774.272	10.7
774.449	9.24
774.625	10.7
774.802	10.2
774.979	11.22
775.155	10.14
775.332	10.88
775.508	11.63
775.685	10.76
775.861	10.79
776.038	10.46
776.214	10.32
776.391	10.03
776.567	9.29
776.744	11.25
776.92	10.38
777.096	9.77
777.273	9.93
777.449	10.82
777.626	10.06
777.802	11.3
777.978	10.17
778.155	10.56
778.331	10.48
778.507	9.79
778.683	9.57
778.86	9.3
779.036	11.19
779.212	10.15
779.388	10.6
779.565	9.92
779.741	11.08
779.917	9.4
780.093	10.35
780.269	9.16
780.445	9.91
780.621	10.29
780.797	9.52
780.974	9.69
781.15	9.52
781.326	9.63
781.502	9.63
781.678	9.7
781.854	8.76
782.03	8.41
782.206	10.41
782.382	9.06
782.558	10.59
782.733	10.12
782.909	9.93
783.085	10.6
783.261	9.87
783.437	8.9
783.613	10.05
783.789	10.39
783.965	9.31
784.14	8.91
784.316	9.43
784.492	8.92
784.668	8.93
784.843	8.87
785.019	10.25
785.195	7.79
785.371	9.85
785.546	9.04
785.722	9.73
785.898	9.18
786.073	9.2
786.249	10.41
786.424	10.61
786.6	9.07
786.776	9.43
786.951	8.2
787.127	8.49
787.302	9.1
787.478	8.65
787.653	7.47
787.829	9.58
788.004	10.19
788.18	9.81
788.355	7.73
788.531	8.01
788.706	10.23
788.881	8.31
789.057	9.64
789.232	7.26
789.408	11.99
789.583	10.8
789.758	9.43
789.934	7.72
790.109	9.1
790.284	9.43
790.459	10.24
790.635	9.26
790.81	9.5
790.985	9.31
791.16	8.56
791.336	10.12
791.511	8.41
791.686	9.7
791.861	10.52
792.036	11.52
792.211	9.94
792.387	10.27
792.562	7.59
792.737	8.25
792.912	7.86
793.087	8.93
793.262	8.18
793.437	7.38
793.612	8.12
793.787	10.42
793.962	7.23
794.137	8
794.312	7.73
794.487	8.36
794.662	9.05
794.837	7.07
795.011	8.85
795.186	11.04
795.361	8.87
795.536	9.78
795.711	7.66
795.886	10.25
796.06	8.69
796.235	9.24
796.41	6.51
796.585	8.61
796.76	7.89
796.934	7.84
797.109	10.96
797.284	9.19
797.458	8.69
797.633	11.74
797.808	8.94
797.982	10.19
798.157	9.05
798.332	9.3
798.506	7.35
798.681	7.35
798.855	8.42
799.03	10.87
799.204	9.08
799.379	8.69
799.553	6.81
799.728	7.33
799.902	8.4
800.077	8.84
800.251	9.79
800.426	7.54
800.6	10
800.775	7.15
800.949	10.9
801.123	7.81
801.298	9.87
801.472	9.66
801.647	7.88
801.821	6.2
801.995	6.74
802.169	9.38
802.344	8.57
802.518	9.01
802.692	5.65
802.867	8.31
803.041	11.4
803.215	9.48
803.389	10.09
803.563	8.94
803.737	4.13
803.912	8.8
804.086	10.17
804.26	10.73
804.434	7.42
804.608	6.19
804.782	8.45
804.956	10.17
805.13	7.65
805.304	5.63
805.478	12.35
805.652	11.61
805.826	11.91
806	9.19
806.174	9.42
806.348	10.93
806.522	7.1
806.696	10.08
806.87	9
807.044	11.13
807.218	12.77
807.392	9.98
807.566	10.43
807.739	8.96
807.913	10.13
808.087	10.23
808.261	8.44
808.435	5.02
808.608	6.41
808.782	6.62
808.956	5.31
809.13	5.68
809.303	9.36
809.477	9.02
809.651	8.12
809.824	10.44
809.998	9.52
810.172	7.8
810.345	8.18
810.519	5.05
810.692	7.42
810.866	8.19
811.04	7.52
811.213	6.94
811.387	11.17
811.56	7.97
811.734	8.34
811.907	10.83
812.081	9.85
812.254	9.58
812.428	7.84
812.601	7.36
812.774	8.47
812.948	10.05
813.121	10.64
813.295	9.48
813.468	9.3
813.641	2.24
813.815	10.86
813.988	7.93
814.161	8.62
814.335	9.14
814.508	7.6
814.681	7.4
814.854	9.59
815.028	11.28
815.201	9.33
815.374	11.32
815.547	7.64
815.72	6.69
815.894	10.64
816.067	10.38
816.24	11.27
816.413	8.32
816.586	11.15
816.759	8.68
816.932	9.14
817.105	8.22
817.278	8.85
817.452	5.78
817.625	8.36
817.798	7.85
817.971	9.68
818.144	6.45
818.317	7.51
818.49	9
818.662	8.71
818.835	10.89
819.008	6.13
819.181	6.27
819.354	9.36
819.527	10.86
819.7	5.27
819.873	7.76
820.046	8.88
820.218	7.25
820.391	8.6
820.564	11.08
820.737	4.63
820.909	8.82
821.082	11.02
821.255	9.14
821.428	11.22
821.6	9.74
821.773	9.57
821.946	7.75
822.118	7.22
822.291	7.18
822.464	3.58
822.636	11.09
822.809	7.42
822.982	11.32
823.154	10.39
823.327	8.97
823.499	5.64
823.672	8.51
823.844	5.35
824.017	9.11
824.189	7.59
824.362	10.33
824.534	7.93
824.707	12.27
824.879	7.1
825.052	8.01
825.224	8.51
825.396	8.32
825.569	8.98
825.741	9.62
825.914	8.38
826.086	7.62
826.258	8.98
826.431	8.77
826.603	9.07
826.775	12.15
826.947	5.78
827.12	12.33
827.292	9.99
827.464	5.37
827.636	7.96
827.809	9.64
827.981	7.76
828.153	5.36
828.325	8.33
828.497	10.6
828.669	10.31
828.842	1.47
829.014	7.56
829.186	6.4
829.358	4.83
829.53	8.77
829.702	7.7
829.874	11.66
830.046	10.56
830.218	8.96
830.39	5.16
830.562	12.73
830.734	13.13
830.906	7.37
831.078	6.58
831.25	11.89
831.422	8.06
831.594	8.81
831.766	7.81
831.937	8.3
832.109	10.33
832.281	9.71
832.453	7.13
832.625	8.26
832.797	9.04
832.968	11.02
833.14	8.71
833.312	10.11
833.484	8.44
833.655	10.65
833.827	3.94
833.999	7.56
834.171	11.29
834.342	8.03
834.514	9.74
834.686	8.96
834.857	8.81
835.029	6.25
835.2	9.59
835.372	7.89
835.544	5.02
835.715	6.34
835.887	11.59
836.058	4.69
836.23	6.63
836.401	7.84
836.573	7.08
836.744	5.9
836.916	9.1
837.087	5.5
837.259	9.6
837.43	7.98
837.602	9.09
837.773	9.15
837.945	6.14
838.116	5.13
838.287	3.6
838.459	7.31
838.63	10.01
838.801	11.22
838.973	6.73
839.144	5.72
839.315	5.9
839.487	11.26
839.658	9.92
839.829	8.98
840	6.06
840.172	7.83
840.343	8.77
840.514	6.25
840.685	6.77
840.856	6.75
841.027	9.07
841.199	9.14
841.37	6.32
841.541	3.27
841.712	14.41
841.883	14.37
842.054	7.32
842.225	8.76
842.396	10.03
842.567	3.25
842.738	7.51
842.909	12.13
843.08	9.89
843.251	8.36
843.422	4.19
843.593	10.28
843.764	3.87
843.935	11.1
844.106	6.97
844.277	16.11
844.448	11.52
844.619	6.37
844.79	7.19
844.96	13.44
845.131	10.41
845.302	7.98
845.473	10.03
845.644	6.48
845.814	8.02
845.985	6.65
846.156	9.99
846.327	9.49
846.497	0.79
846.668	7.11
846.839	4.94
847.01	8.02
847.18	9.04
847.351	8.86
847.522	10.39
847.692	9.66
847.863	10.25
848.033	13.18
848.204	11.61
848.375	7.36
848.545	11.42
848.716	12.01
848.886	6.57
849.057	7.12
849.227	6.12
849.398	2.58
849.568	6.43
849.739	9.34
849.909	11.48
850.08	7.64
850.25	8.64
850.421	4.74
850.591	11.75
850.761	9.26
850.932	8.1
851.102	-0.01
851.272	8.86
851.443	8.36
851.613	3.18
851.783	8.01
851.954	7.57
852.124	9
852.294	7.8
852.465	7.83
852.635	8.78
852.805	7.42
852.975	4.02
853.145	5.93
853.316	9.27
853.486	11.27
853.656	9.52
853.826	7.45
853.996	7.29
854.166	4.71
854.337	8.89
854.507	10.03
854.677	12.19
854.847	7.95
855.017	7.79
855.187	11.19
855.357	5.04
855.527	10.44
855.697	16.21
855.867	13.53
856.037	8.12
856.207	12.62
856.377	6.05
856.547	7.19
856.717	13.23
856.887	11.1
857.057	10.58
857.227	11
857.397	9.96
857.566	7.05
857.736	1.43
857.906	1.88
858.076	13.95
858.246	5.54
858.416	12.73
858.585	8.46
858.755	0.16
858.925	8.8
859.095	10.5
859.264	13.59
859.434	7.72
859.604	3.34
859.774	5.39
859.943	7.62
860.113	3.33
860.283	3.2
860.452	9.34
860.622	3.96
860.791	6.58
860.961	8.13
861.131	7.69
861.3	9.93
861.47	6.95
861.639	4.55
861.809	10.29
861.978	7.9
862.148	3.11
862.318	7.95
862.487	4.55
862.657	5.82
862.826	6.17
862.995	4.11
863.165	18.4
863.334	1.96
863.504	7.16
863.673	14.26
863.843	9.11
864.012	16.25
864.181	7.31
864.351	11.96
864.52	0.8
864.689	2.14
864.859	5.25
865.028	7.63
865.197	0.21
865.366	9.94
865.536	10.91
865.705	18.93
865.874	4.37
866.043	3.58
866.213	17.08
866.382	5.28
866.551	4.63
866.72	11.15
866.889	9
867.059	-1.53
867.228	9.5
867.397	2.06
867.566	-4.05
867.735	15.61
867.904	10.27
868.073	4.3
868.242	10.38
868.411	6.8
868.58	3.01
868.749	16.19
868.918	0.2
869.087	16.18
869.256	6.33
869.425	14.82
869.594	4.2
869.763	4.91
869.932	13.62
870.101	1.14
870.27	4.63
870.439	2.02
870.608	7.97
870.777	2.8
870.945	4.47
871.114	16.42
871.283	2.21
871.452	15.87
871.621	15.18
871.789	8.03
871.958	14.29
872.127	-2.66
872.296	6.95
872.464	13.25
872.633	3.89
872.802	6.55
872.971	16.1
873.139	9.18
873.308	7.74
873.477	5.05
873.645	8.31
873.814	9.09
873.983	-5.23
874.151	6.29
874.32	6.1
874.488	11.82
874.657	10.45
874.826	17.24
874.994	13.47
875.163	5.1
875.331	1.56
875.5	12.65
875.668	7.47
875.837	8.18
876.005	6.96
876.174	10.84
876.342	12.07
876.51	5.66
876.679	16.38
876.847	18.27
877.016	-6.23
877.184	-5.68
877.352	3.35
877.521	11.19
877.689	-2.03
877.857	10.84
878.026	6.64
878.194	5.74
878.362	11.56
878.531	-6.25
878.699	12.14
878.867	8.22
879.036	-0.56
879.204	5.37
879.372	8.76
879.54	1.73
879.708	11.05
879.877	13.17
880.045	22.55
880.213	1.87
880.381	16.26
880.549	21.64
880.717	15.05
880.885	9.09
881.054	0.86
881.222	16.28
881.39	10.27
881.558	18.3
881.726	-4.86
881.894	7.89
882.062	7.9
882.23	11.17
882.398	5.78
882.566	-3.37
882.734	5.82
882.902	11.25
883.07	-1.36
883.238	15.93
883.406	12.35
883.574	-7.53
883.741	15.68
883.909	8.38
884.077	7.25
884.245	8.11
884.413	8.07
884.581	7.01
884.749	9.87
884.916	16.55
885.084	2.7
885.252	10.12
885.42	-0.37
885.587	20.36
885.755	1.7
885.923	2.15
886.091	0.29
886.258	18.44
886.426	-9.32
886.594	-4.38
886.761	8.44
886.929	11.29
887.097	11.27
887.264	0.85
887.432	23.16
887.6	-11.8
887.767	19.9
887.935	7.39
888.102	-0.43
888.27	7.63
888.438	19.45
888.605	-3.2
888.773	6.4
888.94	10.53
889.108	0.35
889.275	13.09
889.443	11.42
889.61	4.69
889.778	12.24
889.945	-6.82
890.112	3.83
890.28	6.74
890.447	7.74
890.615	8.11
890.782	15.45
890.949	5.78
891.117	-10.54
891.284	8.09
891.452	-14.13
891.619	2.24
891.786	10.1
891.953	-0.34
892.121	16.68
892.288	20.02
892.455	1.31
892.623	12.32
892.79	2.23
892.957	9.86
893.124	17.96
893.291	0.33
893.459	12.21
893.626	17.84
893.793	8.76
893.96	6.11
894.127	7.11
894.294	-4.24
894.461	-14.68
894.629	11.01
894.796	-7.43
894.963	1.27
895.13	8.74
895.297	0.34
895.464	10.71
895.631	0.39
895.798	26.83
895.965	0.68
896.132	-8.14
896.299	11.79
896.466	11.92
896.633	5.38
896.8	2.25
896.967	5.98
897.134	5.1
897.301	-2.23
897.467	6.61
897.634	1.69
897.801	7.46
897.968	11.04
898.135	15.52
898.302	10.39
898.469	10.46
898.635	0.71
898.802	11.03
898.969	5.06
899.136	-4.93
899.303	8.73
