Data from y0_Transmission_15-22-17-146.txt Node
Date: Thu May 02 15:22:17 EDT 2019
User: dh1006
Spectrometer: USB4E01358
Autoset integration time: false
Trigger mode: 4
Integration Time (sec): 8.000000E-2
Scans to average: 1
Electric dark correction enabled: true
Nonlinearity correction enabled: false
Boxcar width: 0
Stray light correction enabled: false
XAxis mode: Wavelengths
Stop averaging: false
Number of Pixels in Spectrum: 3648
>>>>>Begin Spectral Data<<<<<
176.727	343.33
176.966	343.33
177.205	343.33
177.444	175.84
177.683	209.83
177.922	34.69
178.161	-265.74
178.4	-38
178.638	3225
178.877	1147.83
179.116	40
179.355	1600
179.593	-217.93
179.832	-26.7
180.071	-110.53
180.309	588.89
180.548	55.11
180.786	44.86
181.025	-8150
181.263	-31.72
181.502	103.36
181.74	118
181.979	-28.1
182.217	-0.58
182.456	50.68
182.694	-66.14
182.932	-34.29
183.17	35.27
183.409	-18.37
183.647	72.68
183.885	313.68
184.123	121.19
184.361	187.77
184.6	29.44
184.838	-3744.44
185.076	601.79
185.314	36.6
185.552	97.01
185.79	59.84
186.028	45.55
186.266	77.45
186.503	-49.71
186.741	-57.74
186.979	94.74
187.217	-7175
187.455	70.59
187.693	38.59
187.93	38.65
188.168	-187.5
188.406	60.76
188.643	34.46
188.881	-1.45
189.119	28.48
189.356	-157.41
189.594	30.55
189.831	342.98
190.069	-47.29
190.306	78.72
190.543	48.02
190.781	211.95
191.018	84.39
191.256	300
191.493	-85.52
191.73	3.05
191.967	-257.14
192.205	-120.38
192.442	6.14
192.679	-1325
192.916	-65.63
193.153	189.22
193.39	-71.43
193.628	205.45
193.865	-41.77
194.102	-205.56
194.339	76.77
194.576	-23.83
194.813	21.71
195.049	-8.75
195.286	76.62
195.523	-83.27
195.76	60.53
195.997	-161.29
196.234	59.78
196.47	91.86
196.707	-49.25
196.944	-60.93
197.18	-3.13
197.417	147.66
197.654	44.46
197.89	66.76
198.127	-3.14
198.363	90.8
198.6	15.57
198.836	40
199.073	104.41
199.309	19.69
199.546	61.37
199.782	-129.25
200.018	-696.67
200.255	25.19
200.491	-969.77
200.727	185.96
200.963	72.16
201.199	-259.36
201.436	380.34
201.672	15.44
201.908	176.94
202.144	73.09
202.38	382.11
202.616	70.02
202.852	106.93
203.088	9.32
203.324	258.95
203.56	-571.95
203.796	8.25
204.032	53.38
204.268	-133.33
204.503	198.44
204.739	89.6
204.975	-28.99
205.211	-127.56
205.446	112.37
205.682	27.48
205.918	-455.81
206.153	-39.93
206.389	112.22
206.625	193.04
206.86	60.68
207.096	56.25
207.331	23.09
207.567	-70.43
207.802	-195.24
208.037	11.74
208.273	38.35
208.508	167.59
208.744	-19.3
208.979	34.83
209.214	-2300
209.449	23.1
209.685	-48.16
209.92	-0.58
210.155	141.6
210.39	43.66
210.625	439.29
210.86	-41.83
211.095	478.43
211.33	84.44
211.565	-217.59
211.8	-58.62
212.035	106.61
212.27	51.09
212.505	-160.99
212.74	59.14
212.975	1009.09
213.21	5.77
213.444	-24.01
213.679	-49.78
213.914	4.77
214.149	-18.65
214.383	40
214.618	48.67
214.853	13.56
215.087	-7.53
215.322	145.9
215.556	-124.62
215.791	330.23
216.025	85.12
216.26	-24.01
216.494	-16.22
216.729	251.85
216.963	25.35
217.197	-4.8
217.432	42.76
217.666	363.41
217.9	26.56
218.135	40
218.369	3188.89
218.603	311.68
218.837	27.14
219.071	61.33
219.306	52.93
219.54	101.39
219.774	30.6
220.008	74.25
220.242	267.77
220.476	682.35
220.71	40.97
220.944	44.8
221.178	-635.37
221.411	75.86
221.645	-7.09
221.879	65.87
222.113	603.33
222.347	72.96
222.58	-52.67
222.814	62.08
223.048	119.44
223.281	-65.09
223.515	507.08
223.749	96.88
223.982	7.04
224.216	807
224.449	77.63
224.683	-96.07
224.916	-205.56
225.15	-2.67
225.383	170
225.617	-29.14
225.85	40
226.083	339.57
226.317	96.73
226.55	-52.76
226.783	275.93
227.016	-8.47
227.25	-480
227.483	-210.71
227.716	-28.18
227.949	-93.5
228.182	12.03
228.415	-45.57
228.648	40
228.881	53.4
229.114	-77.18
229.347	41.24
229.58	586
229.813	46.29
230.046	-44.7
230.279	-36.55
230.512	58.66
230.745	22.17
230.977	58.51
231.21	-23.22
231.443	-39.26
231.675	185.29
231.908	2517.65
232.141	64.01
232.373	-261.05
232.606	-398.64
232.839	7.63
233.071	-254.67
233.304	-202.27
233.536	-274.74
233.769	-17.51
234.001	35.65
234.233	-97.22
234.466	30.27
234.698	382.84
234.93	-157.24
235.163	-12.92
235.395	-758.14
235.627	-108.71
235.86	-1.45
236.092	62.44
236.324	65.44
236.556	26.79
236.788	62.45
237.02	-73.52
237.252	-6.64
237.484	98.94
237.716	-826.67
237.948	201.32
238.18	514.88
238.412	117.09
238.644	218.75
238.876	153.75
239.108	-70.25
239.34	-360.66
239.571	-182.75
239.803	-28.54
240.035	123.73
240.267	117.69
240.498	-2155.56
240.73	875.41
240.962	-150.75
241.193	131.05
241.425	24.18
241.656	197.12
241.888	13.86
242.119	-14.11
242.351	-32.56
242.582	103.77
242.814	20.66
243.045	47.22
243.277	86.57
243.508	335.14
243.739	-158.38
243.971	16.4
244.202	18.27
244.433	-98.27
244.664	33
244.896	-62.03
245.127	43.21
245.358	-25
245.589	6.94
245.82	221.33
246.051	-49.78
246.282	40
246.513	-291.57
246.744	5.7
246.975	-476.83
247.206	33.99
247.437	69.3
247.668	-325.93
247.899	40
248.129	96.88
248.36	-69.28
248.591	37.67
248.822	23.57
249.052	-0.75
249.283	101.07
249.514	21.67
249.744	-10.93
249.975	118.99
250.206	-7.09
250.436	11.55
250.667	225.18
250.897	15.88
251.128	22.02
251.358	-209.46
251.589	119.44
251.819	92.62
252.049	88.81
252.28	70.73
252.51	-6.5
252.74	51.16
252.971	300
253.201	56.73
253.431	-27.26
253.661	-123.11
253.891	7.5
254.121	10.14
254.352	86.22
254.582	-257.14
254.812	186.06
255.042	-46.23
255.272	-92.39
255.502	-95.65
255.732	300
255.962	747.54
256.192	38.85
256.421	38.28
256.651	17.26
256.881	109.33
257.111	74.06
257.341	-78.29
257.57	140.58
257.8	7.8
258.03	61.47
258.259	8.9
258.489	22.06
258.719	7.44
258.948	-10.6
259.178	-48.27
259.407	403.54
259.637	61.67
259.866	-195.63
260.096	-170.35
260.325	149.71
260.555	-27.73
260.784	59.35
261.013	67.86
261.243	21.6
261.472	458.11
261.701	-52.44
261.931	-217.05
262.16	85.85
262.389	-227.92
262.618	53.79
262.847	20.68
263.076	27.33
263.305	91.86
263.535	-270.28
263.764	58.76
263.993	59.63
264.222	7.42
264.451	68.56
264.679	9.32
264.908	73.09
265.137	67.49
265.366	51.59
265.595	128.95
265.824	39.6
266.053	66.15
266.281	-90.75
266.51	-3.55
266.739	66.75
266.967	3.19
267.196	3875
267.425	-56.35
267.653	12.21
267.882	11.32
268.11	496.03
268.339	-58.87
268.567	-18.87
268.796	-44.12
269.024	1275
269.253	-140.16
269.481	-8.44
269.709	-4.91
269.938	11.11
270.166	23.09
270.394	-51.67
270.623	53.58
270.851	102.34
271.079	-6.05
271.307	19.35
271.535	220.87
271.764	63.02
271.992	143.26
272.22	32.54
272.448	26.32
272.676	30.12
272.904	-121.38
273.132	71.71
273.36	47.45
273.588	192.17
273.816	16.36
274.043	-99.31
274.271	65.51
274.499	288.44
274.727	-61.11
274.955	21.69
275.182	-27.89
275.41	-182.26
275.638	-51.99
275.866	1058.33
276.093	45.32
276.321	-221.23
276.548	45.06
276.776	-76.69
277.003	71.41
277.231	671.43
277.458	-3.05
277.686	88.75
277.913	-41.25
278.141	34.84
278.368	108.55
278.595	12.85
278.823	173.17
279.05	-70.76
279.277	-20.4
279.505	-179.66
279.732	-192.03
279.959	485.71
280.186	2.95
280.413	4.85
280.641	-218.5
280.868	85.94
281.095	-76.89
281.322	-1953.33
281.549	-34.14
281.776	80.18
282.003	9.25
282.23	-81.03
282.457	67.98
282.683	44.46
282.91	-33.12
283.137	49.58
283.364	240.91
283.591	-11.34
283.818	7450
284.044	-1574.42
284.271	114.77
284.498	-21.78
284.724	58.01
284.951	-50.71
285.178	88.86
285.404	5.38
285.631	62.44
285.857	26.91
286.084	-166.04
286.31	-21.45
286.537	50.81
286.763	34.57
286.99	-39.49
287.216	-1433.33
287.442	-301.36
287.669	23.7
287.895	-0.15
288.121	365.47
288.347	70.59
288.574	-1.91
288.8	10.81
289.026	83.33
289.252	-30.36
289.478	-107.46
289.704	-6.15
289.931	77.63
290.157	45.81
290.383	-40.21
290.609	-21.97
290.835	18.86
291.06	-132.23
291.286	-0.26
291.512	-90.75
291.738	-119.35
291.964	-14.34
292.19	-98.74
292.416	-133.33
292.641	73.22
292.867	9.34
293.093	40
293.319	12.3
293.544	157.2
293.77	13.44
293.995	24.42
294.221	-93.1
294.447	103.91
294.672	-16.81
294.898	39.45
295.123	85.53
295.349	131.33
295.574	141.46
295.799	-102.31
296.025	13.68
296.25	-0.21
296.476	-441
296.701	35.1
296.926	-21.45
297.151	-202.27
297.377	597.14
297.602	81.96
297.827	106.04
298.052	243.13
298.277	111.96
298.502	13.77
298.727	105.51
298.953	26.5
299.178	68.99
299.403	175.88
299.628	1.95
299.852	-218.91
300.077	-2835.29
300.302	12.21
300.527	-62.94
300.752	-8.47
300.977	807
301.202	513.11
301.426	-75.33
301.651	21.43
301.876	841.67
302.101	-160.96
302.325	65.19
302.55	32.49
302.775	137.5
302.999	46.75
303.224	6.6
303.448	1.37
303.673	-217.59
303.897	114.6
304.122	-0.21
304.346	32.98
304.571	6.31
304.795	149.66
305.019	81.89
305.244	51.64
305.468	440.54
305.692	189.7
305.917	52.89
306.141	25.22
306.365	598.36
306.589	-46.67
306.813	5.38
307.038	64.76
307.262	-150.5
307.486	145.24
307.71	2250
307.934	52
308.158	-271.1
308.382	69.73
308.606	-120.82
308.83	69.09
309.054	-272
309.278	92.99
309.502	64.54
309.725	89.6
309.949	44.18
310.173	55.94
310.397	40.6
310.62	-49.25
310.844	149.82
311.068	23.75
311.292	99.35
311.515	-28.97
311.739	516.67
311.962	-55.21
312.186	64.19
312.41	-61.25
312.633	-52.54
312.857	30.51
313.08	-229.63
313.303	98.94
313.527	-25.64
313.75	128.38
313.974	9.5
314.197	102.89
314.42	128.87
314.644	206.02
314.867	24.77
315.09	-17.83
315.313	10.6
315.536	-31.22
315.76	13.1
315.983	-28.99
316.206	75.45
316.429	-0.62
316.652	-191.11
316.875	32.79
317.098	31.98
317.321	28.53
317.544	-252.5
317.767	48.88
317.99	23.79
318.213	-74.32
318.436	-62.03
318.658	-16.72
318.881	5.3
319.104	-49.76
319.327	81.35
319.55	-83.27
319.772	123.92
319.995	560
320.218	100.88
320.44	403.17
320.663	32.74
320.885	-109.14
321.108	23.21
321.331	73.58
321.553	-16.77
321.776	-8150
321.998	1.94
322.22	-8.71
322.443	68.56
322.665	45.78
322.888	45.27
323.11	25.22
323.332	19.77
323.555	108.82
323.777	-34.5
323.999	-25.45
324.221	182.06
324.443	-116.9
324.666	-20.03
324.888	51.23
325.11	-140.5
325.332	-7.04
325.554	103.77
325.776	-27.44
325.998	1055.81
326.22	-171.01
326.442	-69.07
326.664	44.18
326.886	-208.96
327.108	93.79
327.33	28.44
327.551	16.09
327.773	-32.8
327.995	-3.14
328.217	-42.76
328.439	26.5
328.66	37.16
328.882	-76.03
329.104	-257.14
329.325	73.91
329.547	43.88
329.769	-38.94
329.99	65.82
330.212	172.13
330.433	-65.55
330.655	32.29
330.876	31.7
331.098	300
331.319	52.45
331.54	36.02
331.762	5.95
331.983	33.73
332.204	-38.12
332.426	83.97
332.647	197.75
332.868	117.47
333.089	57.93
333.311	15.43
333.532	92.69
333.753	-1780
333.974	40
334.195	-70.92
334.416	68.25
334.637	-266.13
334.858	-26.82
335.079	-93.42
335.3	-27.89
335.521	-261.81
335.742	-171.01
335.963	37.02
336.184	47.81
336.405	54.81
336.626	7.19
336.846	57.28
337.067	145.24
337.288	20.24
337.509	-1650
337.729	-29.97
337.95	27.91
338.171	-33.17
338.391	39.43
338.612	20.69
338.833	841.67
339.053	19.45
339.274	28.52
339.494	-23.44
339.715	73.02
339.935	61.39
340.156	10.81
340.376	17.11
340.596	80.83
340.817	634.29
341.037	77.85
341.257	52.12
341.478	-5.88
341.698	-28.53
341.918	-463.75
342.138	37.02
342.359	-91.4
342.579	-29.39
342.799	68.56
343.019	42.11
343.239	7.11
343.459	-58.05
343.679	30.44
343.899	28.77
344.119	46.17
344.339	3.8
344.559	-0.12
344.779	260.61
344.999	-6.24
345.219	70.88
345.439	95.28
345.658	5355.56
345.878	1247.92
346.098	-14.38
346.318	18.73
346.537	950
346.757	66.36
346.977	-0.16
347.196	3.24
347.416	15.15
347.636	29.84
347.855	48.74
348.075	19.32
348.294	23.75
348.514	47.22
348.733	-30.91
348.953	-28.42
349.172	-75.56
349.392	-116.27
349.611	79.04
349.83	-25
350.05	-76.9
350.269	-42.49
350.488	7.87
350.707	-133.33
350.927	19.5
351.146	-10.96
351.365	-2.1
351.584	88.26
351.803	61.14
352.023	-19.64
352.242	80.38
352.461	178.67
352.68	46.22
352.899	-5.88
353.118	23.4
353.337	107.95
353.556	26.32
353.775	20.14
353.993	19.54
354.212	38.8
354.431	2.39
354.65	68.22
354.869	46.17
355.088	17.53
355.306	96.19
355.525	12.92
355.744	9.99
355.962	-98.39
356.181	493.24
356.4	117.54
356.618	14.63
356.837	55.84
357.055	-58.74
357.274	94.74
357.492	-217.59
357.711	65.32
357.929	-13.12
358.148	-162.22
358.366	136.55
358.585	-21.35
358.803	-90.43
359.021	426.55
359.24	54.44
359.458	-235.02
359.676	31.43
359.894	51.2
360.113	45.57
360.331	69.71
360.549	-331.43
360.767	37.35
360.985	222.39
361.203	84.16
361.421	49.18
361.639	74.57
361.857	26.46
362.075	-84.15
362.293	83.97
362.511	-148.42
362.729	-81.52
362.947	-42.44
363.165	88.75
363.383	21.89
363.601	44.33
363.819	52.54
364.036	-37.69
364.254	253.81
364.472	-31.96
364.689	69.3
364.907	48.63
365.125	462.5
365.342	-105.78
365.56	73.61
365.778	-72.95
365.995	-228.13
366.213	-28.49
366.43	27.1
366.648	-56.6
366.865	47.65
367.083	34.46
367.3	-172.73
367.517	53.79
367.735	-49.75
367.952	-27.07
368.17	7.74
368.387	-46.44
368.604	40.49
368.821	31.03
369.039	6.63
369.256	40.29
369.473	32.15
369.69	-7.89
369.907	-10100
370.124	63.64
370.341	166.18
370.558	18.56
370.776	-6.17
370.993	6.75
371.21	43.66
371.426	-122.65
371.643	-9.16
371.86	33.1
372.077	-103.45
372.294	-15.05
372.511	-17.44
372.728	-11.84
372.945	82.06
373.161	22.18
373.378	-68.71
373.595	-13.61
373.811	29.56
374.028	24.02
374.245	15.3
374.461	-82.59
374.678	37.68
374.895	-30.74
375.111	-47.03
375.328	41.99
375.544	862.16
375.761	56.74
375.977	-1.29
376.194	97.7
376.41	18.71
376.626	45.23
376.843	46.91
377.059	21.49
377.275	18.27
377.492	49.03
377.708	-14.34
377.924	5.9
378.14	11.32
378.357	-13.12
378.573	7.91
378.789	22.18
379.005	-1.39
379.221	21.09
379.437	-27.48
379.653	-3.98
379.869	52.66
380.085	-101.78
380.301	8.87
380.517	-6.54
380.733	51.8
380.949	22.16
381.165	22.89
381.381	-22.96
381.597	2.6
381.813	31.83
382.028	71.96
382.244	18.26
382.46	-50.89
382.676	14.31
382.891	-69.77
383.107	13.46
383.323	45.27
383.538	-52.57
383.754	14.13
383.969	69.52
384.185	-0.11
384.4	4.07
384.616	-1.85
384.831	-16.08
385.047	-30.33
385.262	10.18
385.478	3.17
385.693	-69.62
385.909	49.77
386.124	-13.5
386.339	22.76
386.554	-15.65
386.77	16.96
386.985	-23.08
387.2	-26.08
387.415	49.52
387.631	5.22
387.846	9.64
388.061	23.92
388.276	-49.85
388.491	35.52
388.706	-15.11
388.921	12
389.136	6.93
389.351	23.08
389.566	-39.37
389.781	24.77
389.996	28.66
390.211	33.72
390.426	22.9
390.641	4.07
390.855	-14.74
391.07	24.63
391.285	7.9
391.5	-3.57
391.714	13.49
391.929	7.58
392.144	19.59
392.358	-0.78
392.573	-0.91
392.788	-12.53
393.002	-6.3
393.217	18.22
393.431	-4.42
393.646	6.39
393.86	-9.23
394.075	22.34
394.289	17.67
394.504	-4.82
394.718	-4.93
394.933	-20.79
395.147	18.56
395.361	12.51
395.576	1.35
395.79	-18.76
396.004	-16.61
396.218	18.46
396.432	-3.35
396.647	0.8
396.861	14.11
397.075	1.84
397.289	-6.27
397.503	17.86
397.717	-2.14
397.931	2.72
398.145	6.75
398.359	-12.52
398.573	-5.24
398.787	5.31
399.001	-3.53
399.215	14.44
399.429	0.75
399.643	-6.86
399.857	0.35
400.07	11.38
400.284	7.53
400.498	0.33
400.712	-8.14
400.925	11.56
401.139	0.33
401.353	2.53
401.566	8.76
401.78	4.32
401.994	-2.67
402.207	5.56
402.421	1.54
402.634	2.62
402.848	5.23
403.061	1.67
403.275	3.9
403.488	8.8
403.702	9.28
403.915	-3.06
404.128	1.85
404.342	-5.07
404.555	-9.14
404.768	2.3
404.982	1.67
405.195	-5.22
405.408	4.02
405.621	2.31
405.835	-0.71
406.048	8.78
406.261	6.87
406.474	9.27
406.687	-6.95
406.9	3.36
407.113	3.51
407.326	3.92
407.539	-2.88
407.752	1.6
407.965	-0.73
408.178	3.65
408.391	2.42
408.604	3.53
408.817	0.58
409.029	2.13
409.242	3.15
409.455	2.47
409.668	-4.03
409.881	0.22
410.093	2.22
410.306	-1.27
410.519	0.46
410.731	0.36
410.944	4
411.157	4.91
411.369	0.1
411.582	2.07
411.794	-1.7
412.007	0.44
412.219	6.89
412.432	6.3
412.644	3.8
412.857	0.98
413.069	4.21
413.281	4.11
413.494	4.92
413.706	5.67
413.918	1.3
414.131	3.39
414.343	1.14
414.555	1.68
414.767	4.43
414.979	2.67
415.192	1.41
415.404	0.31
415.616	-0.18
415.828	1.75
416.04	2.55
416.252	3.66
416.464	-1.04
416.676	3.05
416.888	2.62
417.1	-1.63
417.312	0.68
417.524	3.47
417.736	0.3
417.948	1.42
418.159	2.12
418.371	4.98
418.583	1.13
418.795	3.66
419.007	2.81
419.218	1.78
419.43	1.04
419.642	-0.53
419.853	0.21
420.065	4.2
420.276	-0.44
420.488	3.46
420.7	3.4
420.911	5.9
421.123	2.63
421.334	0.9
421.546	3.17
421.757	-1.07
421.969	2.95
422.18	1.35
422.391	3.8
422.603	1.81
422.814	7.1
423.025	2.23
423.237	3.28
423.448	4.76
423.659	4.95
423.87	-0.26
424.082	2.78
424.293	2.91
424.504	5.64
424.715	2.68
424.926	2.47
425.137	1.9
425.348	4.81
425.559	6.6
425.77	5.91
425.981	2.2
426.192	4.07
426.403	1.21
426.614	4.21
426.825	1.93
427.036	6.13
427.247	1.88
427.458	4.11
427.668	2.57
427.879	2.94
428.09	6.47
428.301	1.43
428.511	1.75
428.722	3.2
428.933	2.32
429.143	3.05
429.354	3.83
429.565	6.18
429.775	2.93
429.986	4.54
430.196	3.39
430.407	4.23
430.617	2.18
430.828	1.72
431.038	1.2
431.249	4.44
431.459	6.44
431.669	4.54
431.88	5.59
432.09	6.07
432.3	4.17
432.511	4.63
432.721	4.06
432.931	4.01
433.141	5.51
433.351	3.78
433.562	4.95
433.772	5.14
433.982	5.32
434.192	7.84
434.402	4.52
434.612	4.34
434.822	4.55
435.032	4.12
435.242	5.39
435.452	4.65
435.662	4.82
435.872	5.91
436.082	6.79
436.292	6.41
436.502	6.51
436.711	5.96
436.921	7.54
437.131	6.92
437.341	5.63
437.551	9.44
437.76	7.67
437.97	4.67
438.18	7.28
438.389	7.65
438.599	7.32
438.808	4.91
439.018	10.02
439.228	7.4
439.437	7.18
439.647	7.49
439.856	9.81
440.066	8.59
440.275	9.81
440.484	12.26
440.694	9.72
440.903	11.5
441.113	9.61
441.322	11.62
441.531	9.37
441.741	9.36
441.95	9.71
442.159	12.2
442.368	11.22
442.577	11.07
442.787	12.21
442.996	11.43
443.205	11.07
443.414	10.77
443.623	13.76
443.832	11.91
444.041	13.26
444.25	13.24
444.459	13.46
444.668	15.29
444.877	13.33
445.086	13.07
445.295	15.26
445.504	13.63
445.713	16.5
445.922	14.13
446.13	17.2
446.339	13.36
446.548	14.79
446.757	15.92
446.965	13.06
447.174	16.81
447.383	18.65
447.591	16.36
447.8	15.79
448.009	18.13
448.217	16.7
448.426	14.27
448.634	18.36
448.843	17.93
449.051	17.47
449.26	17.58
449.468	16.64
449.677	18.46
449.885	16.67
450.093	15.84
450.302	13.97
450.51	17.17
450.719	16.49
450.927	14.95
451.135	15.26
451.343	16.44
451.552	17.85
451.76	17.77
451.968	15.8
452.176	13.83
452.384	17.27
452.592	14.25
452.8	16.96
453.009	12.65
453.217	13.21
453.425	15.74
453.633	12.43
453.841	13.96
454.049	13.32
454.257	15
454.464	15.7
454.672	16.63
454.88	15.66
455.088	12.67
455.296	11.48
455.504	14.75
455.711	12.45
455.919	13.48
456.127	15.87
456.335	12.45
456.542	14.46
456.75	13.15
456.958	11.22
457.165	12.22
457.373	10.85
457.581	8.78
457.788	11.18
457.996	11.03
458.203	11.13
458.411	10.79
458.618	11.03
458.826	10.17
459.033	12.12
459.24	9.77
459.448	9.04
459.655	10.94
459.863	8.84
460.07	5.89
460.277	6.98
460.484	10.17
460.692	10.58
460.899	6.24
461.106	8.5
461.313	9.45
461.52	8.36
461.728	9.95
461.935	7.68
462.142	5.58
462.349	8.11
462.556	8.28
462.763	7.02
462.97	5.85
463.177	8.6
463.384	5.95
463.591	4.81
463.798	7.8
464.005	6.63
464.212	8.46
464.418	6.41
464.625	5.89
464.832	5.89
465.039	6.6
465.246	6.29
465.452	3.76
465.659	6.94
465.866	6.11
466.072	5.28
466.279	5.92
466.486	6.14
466.692	6.92
466.899	4.92
467.105	6.75
467.312	4.81
467.519	6.07
467.725	5.94
467.931	3.4
468.138	2.31
468.344	4.37
468.551	3.53
468.757	4.83
468.964	4.98
469.17	3.97
469.376	3.51
469.583	3.86
469.789	4.66
469.995	5.08
470.201	4.78
470.408	4.55
470.614	5.27
470.82	1.77
471.026	1.33
471.232	2.67
471.438	3.34
471.644	5.31
471.85	5.2
472.056	6.37
472.262	6.11
472.468	3.98
472.674	3.62
472.88	5.38
473.086	3.38
473.292	4.6
473.498	2.54
473.704	3.16
473.91	4.78
474.116	4.34
474.321	4.39
474.527	1.71
474.733	3.38
474.939	2.41
475.144	4.19
475.35	1.17
475.556	1.57
475.761	2.97
475.967	3.98
476.173	3.44
476.378	4.7
476.584	2.07
476.789	3.32
476.995	3.62
477.2	2.34
477.406	3.44
477.611	2.16
477.817	2.55
478.022	2.73
478.227	3.15
478.433	0.96
478.638	2.87
478.843	1.08
479.049	3.64
479.254	2.39
479.459	2.01
479.664	2.24
479.87	3.79
480.075	2.18
480.28	3.21
480.485	2.27
480.69	3.9
480.895	1.32
481.1	1.94
481.306	4.37
481.511	2.18
481.716	1.79
481.921	2.26
482.126	2.95
482.33	2.62
482.535	2.82
482.74	1.61
482.945	2.79
483.15	1.27
483.355	2.66
483.56	1.91
483.765	0.87
483.969	0.9
484.174	3.64
484.379	1.82
484.583	1.28
484.788	2.05
484.993	1.46
485.197	2.6
485.402	1.58
485.607	1.77
485.811	2.47
486.016	2.81
486.22	2.73
486.425	2.77
486.629	2.39
486.834	1.38
487.038	2.04
487.243	1.83
487.447	1.92
487.652	2.92
487.856	2.72
488.06	1.75
488.265	1.83
488.469	1.58
488.673	0.47
488.877	1.27
489.082	2.03
489.286	2.33
489.49	1.6
489.694	0.82
489.898	2.48
490.102	2.27
490.307	0.98
490.511	0.98
490.715	1.29
490.919	1.14
491.123	1.5
491.327	2.38
491.531	2.02
491.735	2.18
491.939	1.02
492.143	1.1
492.346	1.72
492.55	1.42
492.754	1.74
492.958	1.98
493.162	0.96
493.366	1.82
493.569	2.75
493.773	2.04
493.977	1.19
494.18	1.65
494.384	0.58
494.588	2.69
494.791	1.5
494.995	1.53
495.199	1.89
495.402	2.2
495.606	1.44
495.809	2.27
496.013	1.57
496.216	1.51
496.42	0.98
496.623	1.07
496.827	2.02
497.03	1.85
497.233	0.7
497.437	1.23
497.64	1.27
497.843	0.93
498.047	1.38
498.25	1.66
498.453	1.41
498.656	1.33
498.86	1.39
499.063	2.05
499.266	1.69
499.469	1.48
499.672	1.76
499.875	1.19
500.078	0.54
500.281	0.76
500.484	1.15
500.687	0.72
500.89	1.42
501.093	1.8
501.296	1.35
501.499	0.69
501.702	2.13
501.905	1.53
502.108	2.17
502.311	1.82
502.514	1.53
502.716	2.25
502.919	2.41
503.122	0.92
503.325	2.57
503.527	0.94
503.73	1.36
503.933	1.29
504.135	2.38
504.338	1.59
504.541	1.45
504.743	2.02
504.946	2.03
505.148	1.17
505.351	1.57
505.553	1.53
505.756	1.77
505.958	2.15
506.161	1.99
506.363	1.29
506.565	1.36
506.768	2.24
506.97	1.16
507.172	0.97
507.375	1.56
507.577	0.97
507.779	1.97
507.982	1.66
508.184	1.43
508.386	2.36
508.588	1.13
508.79	1.58
508.993	1.81
509.195	2.23
509.397	2.23
509.599	1.28
509.801	1.01
510.003	1.03
510.205	1.37
510.407	1.48
510.609	2.18
510.811	1.24
511.013	1.69
511.215	1.23
511.417	1.57
511.618	1.2
511.82	2.23
512.022	1.48
512.224	1.53
512.426	1.75
512.627	1.11
512.829	1.53
513.031	1.38
513.233	2.16
513.434	1.8
513.636	1.18
513.838	2.24
514.039	1.91
514.241	0.99
514.442	1.72
514.644	1.44
514.845	1.58
515.047	1.26
515.248	1.57
515.45	1.29
515.651	0.93
515.853	1.57
516.054	1.39
516.256	0.82
516.457	2.37
516.658	2.1
516.86	1.08
517.061	1.14
517.262	1.69
517.463	1.6
517.665	1.6
517.866	1.59
518.067	1.45
518.268	1.4
518.469	0.95
518.67	1.47
518.872	1.18
519.073	1.41
519.274	2.07
519.475	1.61
519.676	1.08
519.877	1.44
520.078	1.91
520.279	1.51
520.48	1.44
520.681	1.66
520.881	1.5
521.082	1.86
521.283	1.66
521.484	1.6
521.685	1.52
521.886	1.84
522.086	1.55
522.287	1.36
522.488	2.22
522.689	1.54
522.889	1.64
523.09	0.99
523.291	2.13
523.491	1.43
523.692	1.27
523.892	1.88
524.093	1.51
524.294	1.73
524.494	1.89
524.695	1.69
524.895	1.32
525.096	1.67
525.296	1.52
525.496	2.2
525.697	1.84
525.897	1.42
526.098	1.84
526.298	1.66
526.498	2.05
526.699	1.79
526.899	1.86
527.099	1.93
527.299	1.65
527.499	1.79
527.7	1.96
527.9	1.73
528.1	1.77
528.3	2.18
528.5	1.94
528.7	1.63
528.9	1.54
529.1	2
529.3	1.37
529.5	2.06
529.7	1.9
529.9	2.02
530.1	1.78
530.3	1.84
530.5	1.55
530.7	2.13
530.9	2.26
531.1	1.91
531.3	1.85
531.499	2
531.699	2.08
531.899	1.84
532.099	1.83
532.298	1.87
532.498	2.1
532.698	2.02
532.897	1.7
533.097	1.58
533.297	1.86
533.496	2.1
533.696	1.89
533.895	2.27
534.095	1.89
534.294	2.12
534.494	1.93
534.693	1.97
534.893	2.18
535.092	1.84
535.292	2.26
535.491	1.78
535.69	1.67
535.89	1.94
536.089	2.12
536.288	1.63
536.488	1.85
536.687	1.93
536.886	2.06
537.085	2.32
537.285	2.01
537.484	2.1
537.683	2.18
537.882	2.15
538.081	2.15
538.28	2.02
538.479	1.88
538.678	1.78
538.877	2.13
539.076	2.04
539.275	2.37
539.474	2.09
539.673	1.98
539.872	2.14
540.071	2.21
540.27	2.79
540.469	2.4
540.668	2.4
540.867	2.31
541.065	2.34
541.264	2.05
541.463	1.93
541.662	2.3
541.861	2.18
542.059	2.51
542.258	2.15
542.457	2.78
542.655	1.88
542.854	2.47
543.052	2.16
543.251	2.34
543.45	2.58
543.648	2.42
543.847	2.7
544.045	1.71
544.244	2.42
544.442	2.51
544.641	2.25
544.839	2.79
545.037	2.64
545.236	2.82
545.434	2.64
545.632	2.68
545.831	3.01
546.029	2.45
546.227	2.5
546.426	2.31
546.624	2.52
546.822	2.59
547.02	2.33
547.218	2.43
547.417	2.77
547.615	2.8
547.813	2.76
548.011	2.79
548.209	3.04
548.407	3
548.605	3.07
548.803	2.63
549.001	2.85
549.199	2.82
549.397	2.63
549.595	2.79
549.793	2.92
549.991	3
550.189	3.13
550.387	2.99
550.584	3.22
550.782	2.73
550.98	2.87
551.178	3.06
551.376	2.94
551.573	2.91
551.771	2.68
551.969	3.21
552.166	2.6
552.364	2.87
552.562	2.96
552.759	3.24
552.957	3.09
553.154	3.32
553.352	3
553.55	3.06
553.747	3
553.945	3.11
554.142	3.48
554.339	3.29
554.537	3.21
554.734	3.37
554.932	3.33
555.129	3.35
555.326	3.45
555.524	3.74
555.721	3.36
555.918	3.33
556.116	3.27
556.313	3.81
556.51	3.61
556.707	3.46
556.904	3.57
557.102	3.28
557.299	3.56
557.496	3.53
557.693	3.72
557.89	3.89
558.087	3.75
558.284	3.28
558.481	3.8
558.678	3.63
558.875	3.69
559.072	3.85
559.269	3.74
559.466	3.55
559.663	3.63
559.86	3.75
560.057	4.06
560.254	3.64
560.45	3.76
560.647	3.88
560.844	3.73
561.041	4.01
561.237	4.06
561.434	3.81
561.631	4.23
561.828	3.93
562.024	4.16
562.221	3.78
562.418	4.14
562.614	4
562.811	4.34
563.007	3.87
563.204	4.03
563.4	4.5
563.597	4.49
563.793	4.31
563.99	4.18
564.186	4.29
564.383	4.4
564.579	4.53
564.775	4.75
564.972	4.8
565.168	4.69
565.365	4.96
565.561	4.85
565.757	4.68
565.953	4.65
566.15	4.92
566.346	4.77
566.542	4.7
566.738	5.2
566.934	5.07
567.131	4.83
567.327	5.5
567.523	5.16
567.719	4.83
567.915	5.41
568.111	5.05
568.307	5.35
568.503	5.42
568.699	4.85
568.895	5.33
569.091	5.61
569.287	5.42
569.483	5.51
569.679	5.52
569.875	5.5
570.07	5.38
570.266	5.57
570.462	5.37
570.658	5.49
570.854	5.42
571.049	5.19
571.245	5.56
571.441	5.64
571.636	5.37
571.832	5.71
572.028	5.89
572.223	5.73
572.419	5.81
572.615	5.79
572.81	5.74
573.006	5.94
573.201	6.26
573.397	5.84
573.592	6.17
573.788	6.14
573.983	6.15
574.179	6.63
574.374	6.67
574.569	6.73
574.765	6.53
574.96	6.22
575.156	6.59
575.351	6.62
575.546	6.66
575.741	6.73
575.937	6.85
576.132	7.24
576.327	6.84
576.522	6.8
576.718	6.86
576.913	6.89
577.108	7.45
577.303	7.12
577.498	7.1
577.693	7.41
577.888	7.43
578.083	7.48
578.278	7.16
578.473	7.43
578.668	7.69
578.863	7.58
579.058	7.05
579.253	7.5
579.448	7.76
579.643	7.9
579.838	7.69
580.033	7.44
580.227	8.05
580.422	7.96
580.617	8
580.812	8.06
581.006	7.89
581.201	8.29
581.396	8.14
581.591	8.23
581.785	8.57
581.98	8.93
582.175	8.62
582.369	9.2
582.564	9.12
582.758	8.99
582.953	9.3
583.147	9.31
583.342	9.06
583.536	9.39
583.731	9.39
583.925	9.54
584.12	9.63
584.314	9.32
584.509	9.75
584.703	9.63
584.897	9.67
585.092	9.76
585.286	9.76
585.48	9.4
585.674	9.62
585.869	9.73
586.063	10.13
586.257	9.83
586.451	9.89
586.646	9.95
586.84	10.2
587.034	9.96
587.228	9.85
587.422	10.28
587.616	10.19
587.81	10.49
588.004	10.29
588.198	10.1
588.392	10.25
588.586	10.4
588.78	10.65
588.974	10.38
589.168	10.96
589.362	11.16
589.556	11.28
589.75	11.08
589.944	10.79
590.137	11.22
590.331	11.06
590.525	11.44
590.719	11.41
590.913	11.48
591.106	11.81
591.3	11.63
591.494	11.83
591.687	11.95
591.881	11.87
592.075	11.73
592.268	11.83
592.462	11.86
592.655	11.97
592.849	12.02
593.043	12.29
593.236	12.11
593.43	12.2
593.623	11.87
593.817	12.31
594.01	12.26
594.203	12.79
594.397	12.91
594.59	12.99
594.784	13.13
594.977	13.17
595.17	13.25
595.364	13.11
595.557	12.94
595.75	13.15
595.943	13.24
596.137	13.52
596.33	13.33
596.523	13.16
596.716	13.29
596.909	13.46
597.102	13.54
597.296	13.99
597.489	13.82
597.682	13.5
597.875	13.36
598.068	13.13
598.261	13.05
598.454	13.35
598.647	13.61
598.84	12.93
599.033	13.67
599.226	13.66
599.419	14.16
599.611	14.1
599.804	13.7
599.997	14.15
600.19	14.32
600.383	14.33
600.576	14.64
600.768	14.53
600.961	14.64
601.154	14.62
601.347	14.8
601.539	14.67
601.732	14.46
601.925	14.58
602.117	15.34
602.31	15.16
602.502	15.08
602.695	14.79
602.888	14.96
603.08	15.3
603.273	15.06
603.465	15.65
603.658	15.53
603.85	15.21
604.043	15.08
604.235	15.15
604.427	15.28
604.62	14.91
604.812	15.3
605.004	15.1
605.197	15.43
605.389	15.57
605.581	15.32
605.774	15.82
605.966	15.8
606.158	15.49
606.35	15.82
606.543	15.75
606.735	15.89
606.927	16.16
607.119	16.01
607.311	16.42
607.503	16.22
607.695	16.06
607.887	16.35
608.079	16.46
608.271	16.24
608.463	16.57
608.655	16.66
608.847	16.82
609.039	16.78
609.231	17
609.423	17.01
609.615	16.54
609.807	16.55
609.999	16.79
610.191	16.84
610.382	16.59
610.574	16.7
610.766	16.31
610.958	16.75
611.15	16.43
611.341	16.79
611.533	16.38
611.725	16.81
611.916	16.83
612.108	16.37
612.3	16.77
612.491	16.92
612.683	16.63
612.874	16.96
613.066	17.21
613.257	17.04
613.449	17.12
613.64	16.39
613.832	16.17
614.023	17.1
614.215	17.47
614.406	17.28
614.598	17.39
614.789	17.37
614.98	17.33
615.172	17.33
615.363	17.44
615.554	17.64
615.746	17.09
615.937	17.27
616.128	17.7
616.319	17.93
616.511	17.59
616.702	17.58
616.893	17.67
617.084	17.56
617.275	18.22
617.466	17.98
617.658	18.05
617.849	18.03
618.04	17.45
618.231	17.68
618.422	17.47
618.613	17.34
618.804	17.3
618.995	17.37
619.186	17.3
619.377	17.31
619.568	16.92
619.758	17.68
619.949	17.6
620.14	17.07
620.331	17.37
620.522	17.6
620.713	17.71
620.903	17.83
621.094	17.44
621.285	17.3
621.476	17.47
621.666	17.04
621.857	17.75
622.048	18.09
622.238	18.01
622.429	18.47
622.62	18.73
622.81	18.55
623.001	18.83
623.191	18.69
623.382	18.24
623.572	17.79
623.763	17.91
623.953	17.46
624.144	17.81
624.334	17.61
624.525	17.83
624.715	18.29
624.905	18.02
625.096	18.2
625.286	17.87
625.477	17.78
625.667	17.76
625.857	17.47
626.047	17.51
626.238	17.33
626.428	18.15
626.618	17.98
626.808	18.11
626.999	18.25
627.189	18.08
627.379	17.66
627.569	17.78
627.759	17.6
627.949	18.04
628.139	17.72
628.329	18.37
628.519	18.22
628.709	17.85
628.899	17.81
629.089	17.44
629.279	17.43
629.469	17.51
629.659	17.69
629.849	17.52
630.039	16.96
630.229	17.28
630.419	17.39
630.609	17.41
630.798	17.53
630.988	17.26
631.178	17.52
631.368	17.4
631.557	17.73
631.747	17.91
631.937	17.62
632.127	18.14
632.316	17.76
632.506	18.51
632.696	18.41
632.885	18.18
633.075	18.84
633.264	18.28
633.454	18.27
633.643	18.15
633.833	18.05
634.022	18.16
634.212	18.19
634.401	17.97
634.591	17.73
634.78	17.96
634.97	18.1
635.159	18.09
635.348	18.1
635.538	18.49
635.727	18.12
635.916	18.43
636.106	18.51
636.295	18.34
636.484	17.52
636.674	17.59
636.863	17.49
637.052	17.34
637.241	17.17
637.43	17.59
637.619	17.39
637.809	17.75
637.998	18.06
638.187	17.98
638.376	17.81
638.565	18.42
638.754	18.39
638.943	18.23
639.132	18.1
639.321	17.38
639.51	16.83
639.699	17.19
639.888	16.9
640.077	16.77
640.266	17.06
640.455	17.12
640.643	16.93
640.832	16.94
641.021	17.28
641.21	17.29
641.399	17.3
641.587	17.48
641.776	17.57
641.965	17.61
642.154	17.9
642.342	17.63
642.531	17.93
642.72	17.81
642.908	17.8
643.097	17.39
643.286	17.78
643.474	17.6
643.663	17.48
643.851	17.15
644.04	17.09
644.228	17.69
644.417	17.65
644.605	17.98
644.794	17.84
644.982	18.19
645.171	18.29
645.359	17.92
645.547	17.68
645.736	17.7
645.924	17.23
646.112	16.89
646.301	16.86
646.489	16.75
646.677	16.64
646.866	16.57
647.054	16.49
647.242	17.23
647.43	17.23
647.618	17.2
647.807	17.39
647.995	16.88
648.183	16.98
648.371	16.62
648.559	16.32
648.747	16.92
648.935	17.64
649.123	17.3
649.311	17.39
649.499	17.71
649.687	17.14
649.875	16.81
650.063	17.18
650.251	16.61
650.439	16.79
650.627	16.63
650.815	17.09
651.003	17.04
651.191	16.84
651.378	16.99
651.566	17.02
651.754	16.95
651.942	16.99
652.13	16.93
652.317	17.12
652.505	16.96
652.693	16.82
652.88	16.52
653.068	16.31
653.256	16.84
653.443	16.45
653.631	16.79
653.819	16.69
654.006	16.48
654.194	16.88
654.381	16.88
654.569	16.36
654.756	16.55
654.944	17.1
655.131	16.79
655.319	16.81
655.506	16.75
655.693	16.7
655.881	17.04
656.068	16.61
656.256	17.23
656.443	16.92
656.63	17.21
656.818	17.17
657.005	16.95
657.192	17.74
657.379	17
657.567	17.67
657.754	17.25
657.941	17.47
658.128	17.33
658.315	16.73
658.502	16.7
658.69	16.84
658.877	16.95
659.064	17.03
659.251	17.28
659.438	17.09
659.625	16.76
659.812	16.23
659.999	16.4
660.186	16.72
660.373	16.47
660.56	16.63
660.747	16.85
660.934	17.24
661.121	17.2
661.308	17.37
661.494	17.17
661.681	17.22
661.868	16.94
662.055	16.79
662.242	16.62
662.428	17.06
662.615	17.48
662.802	17.39
662.989	17.2
663.175	18.11
663.362	17.74
663.549	17.65
663.735	17.36
663.922	16.99
664.109	16.88
664.295	17.5
664.482	16.9
664.668	17.35
664.855	16.91
665.041	16.65
665.228	16.79
665.414	16.7
665.601	17.01
665.787	16.6
665.974	17.07
666.16	16.68
666.347	16.12
666.533	16.45
666.719	16
666.906	16.46
667.092	16.76
667.278	17.37
667.465	16.9
667.651	17.28
667.837	17.16
668.023	17.61
668.21	17.1
668.396	17.21
668.582	17.32
668.768	16.98
668.954	17.06
669.14	16.73
669.327	17.37
669.513	17.52
669.699	17.67
669.885	17.78
670.071	17.36
670.257	17.39
670.443	17.31
670.629	16.92
670.815	17.2
671.001	16.89
671.187	17.32
671.373	17.29
671.559	17.32
671.744	17.04
671.93	17.46
672.116	17.49
672.302	17.04
672.488	17.21
672.674	17.06
672.859	17.36
673.045	17.38
673.231	17.27
673.417	17.3
673.602	17.03
673.788	17.5
673.974	17.39
674.159	17.1
674.345	17.08
674.531	16.87
674.716	17.25
674.902	16.89
675.087	17.67
675.273	17.73
675.459	17.89
675.644	17.54
675.83	17.13
676.015	17.48
676.2	17.2
676.386	16.91
676.571	17.32
676.757	17.22
676.942	16.92
677.128	16.61
677.313	16.42
677.498	16.31
677.684	16.37
677.869	17.05
678.054	17.44
678.24	17.6
678.425	17.5
678.61	17.86
678.795	17.56
678.98	18.07
679.166	17.95
679.351	17.33
679.536	17.26
679.721	17.43
679.906	17.19
680.091	17.39
680.276	17.19
680.461	17.28
680.647	17.38
680.832	17.22
681.017	17.45
681.202	17.72
681.387	17.56
681.572	17.59
681.756	17.32
681.941	17.14
682.126	17.21
682.311	17.71
682.496	17.04
682.681	17.09
682.866	17.24
683.051	16.95
683.235	17.65
683.42	18.2
683.605	17.49
683.79	18.01
683.974	17.43
684.159	16.97
684.344	17.32
684.529	16.46
684.713	17.24
684.898	17.26
685.083	17.1
685.267	17.11
685.452	17.62
685.636	17.39
685.821	17.35
686.005	16.97
686.19	17.15
686.375	17.43
686.559	17.41
686.744	16.86
686.928	16.87
687.112	17.27
687.297	17.03
687.481	16.9
687.666	16.74
687.85	17.02
688.034	17.15
688.219	17.39
688.403	16.79
688.587	17.17
688.772	16.88
688.956	16.85
689.14	16.94
689.324	17.09
689.509	17.45
689.693	16.43
689.877	16.89
690.061	16.66
690.245	16.94
690.43	17.01
690.614	16.84
690.798	16.44
690.982	16.48
691.166	16.58
691.35	16.49
691.534	16.64
691.718	16.78
691.902	16.73
692.086	16.86
692.27	16.88
692.454	17.09
692.638	17.25
692.822	17.36
693.006	16.65
693.19	17.14
693.373	17
693.557	17.13
693.741	16.51
693.925	16.63
694.109	16.66
694.293	17.03
694.476	16.79
694.66	17
694.844	17.14
695.027	17.53
695.211	17.1
695.395	17.32
695.578	17.54
695.762	16.55
695.946	16.7
696.129	16.54
696.313	16.57
696.497	16.49
696.68	16.33
696.864	16.4
697.047	16.92
697.231	15.96
697.414	16.12
697.598	16
697.781	15.83
697.965	15.67
698.148	16.07
698.331	16.29
698.515	15.6
698.698	15.45
698.881	15.86
699.065	15.93
699.248	16.45
699.431	16.35
699.615	16.33
699.798	16.07
699.981	15.93
700.165	16.11
700.348	15.92
700.531	15.72
700.714	15.81
700.897	15.66
701.08	15.68
701.264	15.31
701.447	15.48
701.63	15.63
701.813	16.04
701.996	16.76
702.179	16.37
702.362	16.19
702.545	16.18
702.728	15.9
702.911	16.15
703.094	16.5
703.277	16.89
703.46	16.59
703.643	16.15
703.826	16.51
704.009	15.9
704.191	15.98
704.374	16.11
704.557	16.12
704.74	15.86
704.923	15.78
705.106	15.77
705.288	15.42
705.471	15.38
705.654	15.73
705.837	15.44
706.019	15.93
706.202	16.14
706.385	16.31
706.567	15.9
706.75	15.57
706.932	15.48
707.115	15.15
707.298	14.95
707.48	15.28
707.663	14.91
707.845	15.73
708.028	15.55
708.21	15.27
708.393	15.53
708.575	15.67
708.758	15.52
708.94	16.17
709.123	16.46
709.305	16.02
709.487	15.87
709.67	16.31
709.852	15.76
710.034	15.6
710.217	15.64
710.399	15.37
710.581	15.36
710.764	15.51
710.946	15.46
711.128	14.84
711.31	15.17
711.492	15.34
711.675	15.33
711.857	15.61
712.039	15.03
712.221	15.22
712.403	15.14
712.585	15.52
712.767	15.35
712.949	14.96
713.131	15.85
713.314	15.54
713.496	15.39
713.678	15.33
713.86	15.37
714.041	15.53
714.223	15.35
714.405	15.5
714.587	15.6
714.769	15.18
714.951	15.14
715.133	14.97
715.315	15.79
715.497	16.14
715.678	15.1
715.86	15.16
716.042	14.97
716.224	15.01
716.406	15.52
716.587	15.45
716.769	14.55
716.951	15.13
717.132	15.03
717.314	15.56
717.496	14.77
717.677	15.09
717.859	14.71
718.041	14.53
718.222	14.06
718.404	14.09
718.585	14.39
718.767	14.34
718.948	15.01
719.13	14.49
719.311	14.71
719.493	14.71
719.674	14.55
719.856	14.84
720.037	14.51
720.219	14.21
720.4	14.55
720.581	14.65
720.763	14.63
720.944	14.24
721.125	14.28
721.307	14.55
721.488	14.86
721.669	14.44
721.85	14.33
722.032	14.77
722.213	14.74
722.394	14.62
722.575	14.35
722.756	14.48
722.938	14.31
723.119	13.74
723.3	14.01
723.481	14.14
723.662	13.5
723.843	13.79
724.024	13.57
724.205	13.75
724.386	14.31
724.567	14.34
724.748	14.36
724.929	14.63
725.11	14.61
725.291	14.87
725.472	14.58
725.653	14.63
725.834	14.74
726.015	14.42
726.196	14.55
726.377	14.38
726.557	14.41
726.738	15.32
726.919	14.2
727.1	13.77
727.281	13.84
727.461	14.11
727.642	13.8
727.823	13.56
728.004	13.78
728.184	13.78
728.365	13.91
728.546	13.82
728.726	13.9
728.907	13.94
729.087	13.74
729.268	14.19
729.449	13.56
729.629	13.35
729.81	13.58
729.99	13.33
730.171	13.12
730.351	13.51
730.532	13.51
730.712	13.26
730.893	12.91
731.073	13.45
731.253	13.16
731.434	13.14
731.614	12.96
731.795	13.44
731.975	13.11
732.155	13.67
732.336	13.6
732.516	13.55
732.696	13.93
732.876	13.66
733.057	13.51
733.237	12.75
733.417	13.19
733.597	13.38
733.778	13.01
733.958	13
734.138	13.14
734.318	12.93
734.498	13.03
734.678	12.66
734.858	13.55
735.038	13.19
735.218	13.39
735.398	13.66
735.579	13.56
735.759	13.8
735.939	12.96
736.119	13.75
736.298	13.56
736.478	13.37
736.658	13.39
736.838	13.17
737.018	13.63
737.198	13.63
737.378	13.73
737.558	13.33
737.738	13.42
737.917	13.26
738.097	13.4
738.277	12.68
738.457	13.34
738.637	13.12
738.816	13.19
738.996	13.32
739.176	12.7
739.355	13.04
739.535	12.77
739.715	12.41
739.894	12.78
740.074	12.3
740.254	12.41
740.433	12.19
740.613	11.99
740.792	12.35
740.972	12.75
741.151	12.65
741.331	12.76
741.51	12.71
741.69	12.6
741.869	13.1
742.049	12.86
742.228	12.92
742.408	12.15
742.587	12.88
742.766	12.69
742.946	13.51
743.125	13.07
743.305	12.9
743.484	12.93
743.663	12.89
743.842	12.76
744.022	12.6
744.201	12.41
744.38	12.18
744.56	12.48
744.739	12.09
744.918	12.21
745.097	12.73
745.276	13.07
745.455	12.63
745.635	12.82
745.814	12.45
745.993	13.2
746.172	12.52
746.351	13.04
746.53	13.42
746.709	12.63
746.888	12.65
747.067	12.58
747.246	12.97
747.425	12.28
747.604	13.05
747.783	13.26
747.962	12.54
748.141	13.13
748.32	12.27
748.499	12.59
748.677	12.26
748.856	12.51
749.035	12.81
749.214	13.15
749.393	12.96
749.572	12.31
749.75	12.73
749.929	12.61
750.108	12.55
750.287	11.86
750.465	12.56
750.644	12.35
750.823	11.81
751.001	12.19
751.18	11.95
751.359	11.63
751.537	12.49
751.716	11.81
751.894	12.14
752.073	11.59
752.251	11.52
752.43	11.96
752.609	12.39
752.787	11.93
752.966	11.23
753.144	11.54
753.322	10.94
753.501	10.93
753.679	11.66
753.858	10.76
754.036	11.18
754.215	11.03
754.393	11.24
754.571	10.95
754.75	11.6
754.928	10.91
755.106	11.81
755.284	12.07
755.463	11.88
755.641	11.74
755.819	11.72
755.997	11.59
756.176	11.77
756.354	11.49
756.532	11.75
756.71	12.04
756.888	11.44
757.066	12.45
757.245	11.38
757.423	10.88
757.601	10.23
757.779	10.89
757.957	10.94
758.135	11.66
758.313	11.24
758.491	10.73
758.669	10.9
758.847	10.65
759.025	10.81
759.203	11.26
759.381	11.78
759.559	11.5
759.737	11.11
759.915	11.23
760.092	11.82
760.27	11.08
760.448	11.28
760.626	11.36
760.804	11.61
760.981	11.31
761.159	11.34
761.337	12.15
761.515	11.81
761.692	11.29
761.87	11.03
762.048	10.58
762.226	11.19
762.403	10.91
762.581	10.92
762.759	10.44
762.936	11.22
763.114	11.65
763.291	11.51
763.469	11.45
763.647	11.56
763.824	11.11
764.002	11.76
764.179	11.01
764.357	11.51
764.534	10.79
764.712	10.64
764.889	10.75
765.066	11.28
765.244	10.27
765.421	10.43
765.599	10.7
765.776	11.2
765.953	10.33
766.131	11.93
766.308	10.78
766.485	11.37
766.663	10.72
766.84	10.95
767.017	11
767.194	10.74
767.372	10.94
767.549	10.98
767.726	10.52
767.903	9.77
768.081	10.18
768.258	10.41
768.435	10.42
768.612	10.53
768.789	11.08
768.966	10.78
769.143	10.49
769.32	11.4
769.497	10.48
769.674	10.73
769.851	11.07
770.028	10.62
770.205	10.46
770.382	10.55
770.559	10.15
770.736	10.82
770.913	10.58
771.09	11.29
771.267	10.33
771.444	10.83
771.621	10.62
771.798	9.73
771.975	10.98
772.151	10.16
772.328	10.72
772.505	10.58
772.682	9.72
772.859	10.07
773.035	10.18
773.212	10.96
773.389	9.8
773.565	10.6
773.742	10.92
773.919	10.91
774.096	9.84
774.272	10.25
774.449	9.39
774.625	10.1
774.802	9.96
774.979	11.1
775.155	10.23
775.332	10.46
775.508	11.99
775.685	10.11
775.861	10.62
776.038	11.14
776.214	10.88
776.391	9.67
776.567	10.15
776.744	11.15
776.92	10.88
777.096	9.41
777.273	9.62
777.449	10.39
777.626	8.97
777.802	9.83
777.978	10.69
778.155	9.9
778.331	9.58
778.507	9.83
778.683	9.4
778.86	10.08
779.036	10.15
779.212	10.01
779.388	9.13
779.565	9.58
779.741	10.06
779.917	10.03
780.093	10.08
780.269	8.91
780.445	9.8
780.621	10.4
780.797	10.8
780.974	8.97
781.15	9.81
781.326	9.25
781.502	8.57
781.678	9.17
781.854	9.71
782.03	8.95
782.206	10.7
782.382	8.82
782.558	10.9
782.733	9.78
782.909	9.75
783.085	10.86
783.261	9.43
783.437	8.75
783.613	9.32
783.789	8.72
783.965	11.26
784.14	9.21
784.316	9.4
784.492	10.82
784.668	7.82
784.843	9.95
785.019	10.2
785.195	8.65
785.371	9.19
785.546	9.46
785.722	10.48
785.898	9.15
786.073	8.96
786.249	8.68
786.424	9.76
786.6	9.51
786.776	9
786.951	9
787.127	11.03
787.302	8.5
787.478	10.39
787.653	8.85
787.829	8.56
788.004	8.78
788.18	10.81
788.355	9.48
788.531	9.29
788.706	10.96
788.881	7.22
789.057	9.64
789.232	7.4
789.408	11.17
789.583	10.83
789.758	8.52
789.934	8.29
790.109	9.03
790.284	10.65
790.459	7.36
790.635	9.6
790.81	9.96
790.985	9.97
791.16	8.49
791.336	8.73
791.511	8.96
791.686	7.72
791.861	8.43
792.036	9.91
792.211	10.47
792.387	9.14
792.562	8.96
792.737	8.09
792.912	8.14
793.087	8.89
793.262	7.56
793.437	9.85
793.612	9.18
793.787	9.64
793.962	8.23
794.137	10.99
794.312	8.27
794.487	9.34
794.662	9.71
794.837	9.58
795.011	7.14
795.186	11
795.361	10.01
795.536	8.84
795.711	8.35
795.886	10.15
796.06	9.63
796.235	11.15
796.41	7.62
796.585	8.55
796.76	9.9
796.934	8.5
797.109	9.39
797.284	8.67
797.458	7.8
797.633	12.1
797.808	8.44
797.982	10.29
798.157	12.05
798.332	11.1
798.506	7.57
798.681	9.77
798.855	8.87
799.03	9.93
799.204	10.01
799.379	7.31
799.553	8.83
799.728	6.16
799.902	6.72
800.077	10.95
800.251	10.1
800.426	10.38
800.6	12.77
800.775	7.4
800.949	9.49
801.123	9.65
801.298	10.07
801.472	10.04
801.647	8.26
801.821	6.4
801.995	8.69
802.169	10.01
802.344	9.01
802.518	7.64
802.692	7.16
802.867	8.11
803.041	10.01
803.215	7.47
803.389	11.35
803.563	5.68
803.737	8.33
803.912	8.53
804.086	7.76
804.26	8.74
804.434	7.97
804.608	10.88
804.782	9.42
804.956	10.72
805.13	9.36
805.304	7.18
805.478	11.47
805.652	14.81
805.826	11.98
806	12.01
806.174	10.32
806.348	10.93
806.522	13.16
806.696	10.92
806.87	10.24
807.044	10.9
807.218	12.77
807.392	13.41
807.566	8.04
807.739	4.77
807.913	7.42
808.087	8.62
808.261	9.31
808.435	6.49
808.608	7.54
808.782	3.46
808.956	5.16
809.13	7.44
809.303	9.36
809.477	9.02
809.651	10.23
809.824	8.59
809.998	8.63
810.172	10.55
810.345	12.32
810.519	5.13
810.692	6.93
810.866	7.41
811.04	7.03
811.213	10.45
811.387	7.59
811.56	10.89
811.734	10.7
811.907	12.46
812.081	7.93
812.254	10.4
812.428	6.19
812.601	7.96
812.774	6.95
812.948	7.33
813.121	10.73
813.295	10.34
813.468	10.52
813.641	4.3
813.815	9.38
813.988	9.8
814.161	3.63
814.335	7.26
814.508	11.45
814.681	7.22
814.854	6.16
815.028	10.2
815.201	10.03
815.374	8.92
815.547	8.43
815.72	10.72
815.894	9.59
816.067	8.8
816.24	6.81
816.413	8.85
816.586	10.88
816.759	9.19
816.932	7.82
817.105	8.82
817.278	9.82
817.452	7.65
817.625	8.98
817.798	9.06
817.971	11.48
818.144	8.46
818.317	12.84
818.49	7.45
818.662	9.48
818.835	8.14
819.008	5.45
819.181	9.77
819.354	12.06
819.527	11.81
819.7	4.94
819.873	8.89
820.046	9.84
820.218	9.59
820.391	11.03
820.564	11.68
820.737	4.63
820.909	11.51
821.082	10.36
821.255	8.96
821.428	10
821.6	10.83
821.773	10.36
821.946	9.84
822.118	12.09
822.291	9.05
822.464	2.86
822.636	7.45
822.809	8.89
822.982	12.95
823.154	10.13
823.327	7.29
823.499	4.57
823.672	6.94
823.844	2.37
824.017	8.09
824.189	9.1
824.362	8.88
824.534	9.63
824.707	9.62
824.879	8.57
825.052	7.84
825.224	8
825.396	6.17
825.569	9.9
825.741	7.47
825.914	8.21
826.086	6.06
826.258	9.07
826.431	9.85
826.603	11.95
826.775	8.54
826.947	9.9
827.12	8.79
827.292	14.51
827.464	5.99
827.636	6.88
827.809	9.47
827.981	10.78
828.153	8.51
828.325	5.27
828.497	8.6
828.669	10.48
828.842	6.34
829.014	10.11
829.186	8.02
829.358	10.47
829.53	10.51
829.702	9.01
829.874	11.12
830.046	10.03
830.218	11.18
830.39	5.53
830.562	11.33
830.734	10.22
830.906	9.4
831.078	8.87
831.25	8.45
831.422	5.07
831.594	8.46
831.766	7.2
831.937	7.67
832.109	3.11
832.281	9.11
832.453	7.13
832.625	8.62
832.797	5.99
832.968	11.86
833.14	8.99
833.312	10.2
833.484	6.24
833.655	9.12
833.827	6.66
833.999	7.36
834.171	9.39
834.342	12.79
834.514	12.03
834.686	9.14
834.857	8.54
835.029	8.61
835.2	9.33
835.372	7.98
835.544	11.23
835.715	5.85
835.887	7.5
836.058	4.69
836.23	13.01
836.401	11
836.573	11.32
836.744	5.9
836.916	8.71
837.087	6.48
837.259	12.71
837.43	5.78
837.602	8.69
837.773	6.66
837.945	9.16
838.116	3.71
838.287	4.2
838.459	10.82
838.63	9.81
838.801	9.64
838.973	8.29
839.144	10.58
839.315	11.11
839.487	5.57
839.658	12.36
839.829	8.21
840	5.85
840.172	7.73
840.343	6.82
840.514	11.1
840.685	9.86
840.856	6.43
841.027	10.41
841.199	13.6
841.37	5.88
841.541	8.12
841.712	11.85
841.883	14.48
842.054	6.42
842.225	8.54
842.396	10.89
842.567	7.18
842.738	10.26
842.909	12.44
843.08	10
843.251	10.58
843.422	10.64
843.593	6.29
843.764	9.27
843.935	12.5
844.106	9.67
844.277	12.84
844.448	10.99
844.619	3.91
844.79	11.73
844.96	9.91
845.131	10.19
845.302	6.87
845.473	5.88
845.644	8.68
845.814	9.49
845.985	11.97
846.156	10.09
846.327	6.37
846.497	6.76
846.668	7.11
846.839	8.4
847.01	8.84
847.18	9.74
847.351	12.2
847.522	14.98
847.692	8.57
847.863	9.87
848.033	9.88
848.204	8.88
848.375	5.32
848.545	11.09
848.716	12.01
848.886	7.26
849.057	6.2
849.227	10.75
849.398	3.2
849.568	11.01
849.739	7.63
849.909	8.57
850.08	12.92
850.25	8.76
850.421	8.27
850.591	6.37
850.761	5.22
850.932	2.78
851.102	4.43
851.272	12.03
851.443	14.04
851.613	7.34
851.783	13.22
851.954	3.22
852.124	7.75
852.294	7.67
852.465	7.83
852.635	10.32
852.805	8.63
852.975	1.52
853.145	6.34
853.316	10.58
853.486	12.84
853.656	11.86
853.826	9.28
853.996	9.96
854.166	11.37
854.337	9.3
854.507	7.37
854.677	10.62
854.847	17.09
855.017	3.6
855.187	10.09
855.357	3.45
855.527	4.65
855.697	6.92
855.867	4.6
856.037	7.3
856.207	6.9
856.377	7.98
856.547	10.94
856.717	9.23
856.887	7.72
857.057	9.61
857.227	13.93
857.397	14.31
857.566	7.05
857.736	9.28
857.906	4.87
858.076	10.04
858.246	11.69
858.416	6.36
858.585	5.58
858.755	10.13
858.925	1.91
859.095	13.08
859.264	2.84
859.434	8.85
859.604	10.7
859.774	6.57
859.943	10.28
860.113	6.5
860.283	10.91
860.452	9
860.622	9.73
860.791	10.79
860.961	8.13
861.131	7.86
861.3	8.61
861.47	12.3
861.639	9.61
861.809	13.73
861.978	8.08
862.148	8.27
862.318	12.19
862.487	12.08
862.657	7.02
862.826	6.7
862.995	10.05
863.165	8.58
863.334	3.54
863.504	10.85
863.673	8.84
863.843	7.97
864.012	12.46
864.181	16.89
864.351	6.26
864.52	3.44
864.689	7.05
864.859	3.43
865.028	6.42
865.197	5.43
865.366	9.14
865.536	15.68
865.705	20.28
865.874	6.56
866.043	6.76
866.213	8.63
866.382	7.73
866.551	7.06
866.72	17.45
866.889	8.43
867.059	-2.83
867.228	6.76
867.397	1.6
867.566	-1.93
867.735	11.98
867.904	14.29
868.073	1.57
868.242	19.37
868.411	9.57
868.58	17.72
868.749	15.74
868.918	-0.46
869.087	6.9
869.256	3.38
869.425	5.96
869.594	14.83
869.763	0.81
869.932	16.05
870.101	-8.79
870.27	0.68
870.439	6.08
870.608	10.13
870.777	10.8
870.945	9.86
871.114	9.72
871.283	10.62
871.452	11.06
871.621	12.61
871.789	10.04
871.958	15.75
872.127	2.86
872.296	2.86
872.464	10.6
872.633	13.91
872.802	9.71
872.971	7.94
873.139	16.63
873.308	12.44
873.477	7.25
873.645	5.61
873.814	14.65
873.983	-7.99
874.151	10.72
874.32	11.2
874.488	3.3
874.657	9.95
874.826	21.79
874.994	20.54
875.163	-1.81
875.331	8.92
875.5	12.18
875.668	13.41
875.837	9.67
876.005	15.68
876.174	15.73
876.342	3.19
876.51	13.01
876.679	6.29
876.847	17.42
877.016	8.89
877.184	4.22
877.352	6.43
877.521	18.67
877.689	13.82
877.857	16.27
878.026	7.75
878.194	15.51
878.362	9.14
878.531	5.27
878.699	4.9
878.867	6.62
879.036	-0.83
879.204	11.62
879.372	5.47
879.54	6.98
879.708	18.26
879.877	5.31
880.045	20.14
880.213	0.29
880.381	10.64
880.549	21.64
880.717	13.28
880.885	17.18
881.054	4.71
881.222	21.54
881.39	19.81
881.558	3.23
881.726	6.74
881.894	12.87
882.062	2.41
882.23	17.41
882.398	14.8
882.566	0.89
882.734	8.16
882.902	16.89
883.07	4.99
883.238	19.84
883.406	1.21
883.574	-0.71
883.741	17.68
883.909	3.21
884.077	25.78
884.245	15.27
884.413	11.11
884.581	10.88
884.749	17.12
884.916	-6.59
885.084	8.16
885.252	4.28
885.42	9.27
885.587	12.04
885.755	18.23
885.923	7.11
886.091	3.76
886.258	16.97
886.426	-2.02
886.594	3.4
886.761	-2.06
886.929	13.48
887.097	12.43
887.264	6.7
887.432	21.11
887.6	3.9
887.767	6.11
887.935	6.42
888.102	9.23
888.27	7.3
888.438	2.86
888.605	-12.03
888.773	3.75
888.94	17.56
889.108	-1.53
889.275	-0.7
889.443	20.08
889.61	10.03
889.778	9.55
889.945	-3.63
890.112	4.18
890.28	0.9
890.447	16.85
890.615	16.25
890.782	19.67
890.949	14.14
891.117	7.11
891.284	23.62
891.452	1.98
891.619	-5.33
891.786	9.12
891.953	20.59
892.121	26.09
892.288	19.34
892.455	6.97
892.623	2.27
892.79	2.61
892.957	18.38
893.124	21.18
893.291	-4.7
893.459	7.25
893.626	17.84
893.793	3.56
893.96	20.77
894.127	10.51
894.294	10.68
894.461	3.06
894.629	8.8
894.796	19.7
894.963	-6.98
895.13	20.96
895.297	-4.04
895.464	17.55
895.631	4.62
895.798	19.96
895.965	12.28
896.132	-5.93
896.299	6.05
896.466	10.11
896.633	19.08
896.8	-3.45
896.967	14.08
897.134	13.74
897.301	16.24
897.467	8.08
897.634	11.99
897.801	12.45
897.968	10.37
898.135	4.25
898.302	7.78
898.469	25.23
898.635	15.76
898.802	16.03
898.969	31.94
899.136	3.48
899.303	2.57
