Data from y0_Transmission_15-24-16-263.txt Node
Date: Thu May 02 15:24:16 EDT 2019
User: dh1006
Spectrometer: USB4E01358
Autoset integration time: false
Trigger mode: 4
Integration Time (sec): 8.000000E-2
Scans to average: 1
Electric dark correction enabled: true
Nonlinearity correction enabled: false
Boxcar width: 0
Stray light correction enabled: false
XAxis mode: Wavelengths
Stop averaging: false
Number of Pixels in Spectrum: 3648
>>>>>Begin Spectral Data<<<<<
176.727	-1293.33
176.966	-1293.33
177.205	-1293.33
177.444	35.39
177.683	279.19
177.922	31.43
178.161	399.07
178.4	-444
178.638	-6450
178.877	-91.3
179.116	316.84
179.355	-1190.91
179.593	-87.25
179.832	114.66
180.071	72.81
180.309	-4066.67
180.548	31.69
180.786	35.83
181.025	375
181.263	45.52
181.502	-168.49
181.74	42.91
181.979	31.43
182.217	-186.71
182.456	99.61
182.694	78.8
182.932	-76.9
183.17	16.91
183.409	204.76
183.647	16.26
183.885	193.68
184.123	158.74
184.361	-38.85
184.6	-15.99
184.838	2577.78
185.076	-205.36
185.314	-95.86
185.552	47.84
185.79	42.17
186.028	88.33
186.266	92.39
186.503	-83.04
186.741	67.57
186.979	32.08
187.217	1675
187.455	-190.34
187.693	42.93
187.93	32.3
188.168	22.92
188.406	99.65
188.643	25.75
188.881	-242.03
189.119	91.14
189.356	-190.74
189.594	151.64
189.831	495.87
190.069	-50.9
190.306	-113.98
190.543	59.63
190.781	88.84
191.018	2.44
191.256	422.95
191.493	23.1
191.73	59.9
191.967	235.71
192.205	-133.7
192.442	-140.05
192.679	-10675
192.916	220.63
193.153	71.18
193.39	-344.64
193.628	274.55
193.865	-76.17
194.102	-259.52
194.339	84.7
194.576	-32.13
194.813	16.21
195.049	529.38
195.286	48.17
195.523	26.69
195.76	65.2
195.997	1.08
196.234	-38.32
196.47	-122.31
196.707	20.9
196.944	48.4
197.18	57.54
197.417	34.77
197.654	19.54
197.89	9.85
198.127	3.36
198.363	-17.24
198.6	-8.46
198.836	-45.33
199.073	13.75
199.309	130.56
199.546	22.18
199.782	37.74
200.018	-470
200.255	144.53
200.491	-1083.72
200.727	-109.65
200.963	29.9
201.199	-19.92
201.436	50
201.672	-32.83
201.908	141.5
202.144	21.64
202.38	-66.32
202.616	51.21
202.852	86.47
203.088	15.01
203.324	-422.11
203.56	-346.34
203.796	-46.53
204.032	38.53
204.268	77.08
204.503	166.8
204.739	46.24
204.975	-92.14
205.211	-91.56
205.446	70.1
205.682	-19.97
205.918	-569.77
206.153	-1.3
206.389	183.61
206.625	78.8
206.86	75.11
207.096	-185.62
207.331	84.88
207.567	-180.65
207.802	54.42
208.037	-147.83
208.273	72.03
208.508	146.3
208.744	-124.85
208.979	23.48
209.214	-9050
209.449	-64.98
209.685	-114.5
209.92	-119.08
210.155	142.86
210.39	103.1
210.625	467.86
210.86	73.31
211.095	202.94
211.33	-11.35
211.565	13.89
211.8	326.44
212.035	130.58
212.27	92.67
212.505	86.88
212.74	92.89
212.975	3418.18
213.21	165.59
213.444	-27.05
213.679	-84.08
213.914	-14.5
214.149	2.66
214.383	48.92
214.618	22.92
214.853	91.31
215.087	-54.84
215.322	-46.81
215.556	-142.71
215.791	-569.77
216.025	452.89
216.26	-23.1
216.494	-125.68
216.729	134.26
216.963	-98.31
217.197	4.97
217.432	69.14
217.666	-13.41
217.9	-31.11
218.135	80.59
218.369	6188.89
218.603	256.29
218.837	47.08
219.071	166.8
219.306	-34.28
219.54	124.48
219.774	58.14
220.008	112.28
220.242	-73.55
220.476	394.12
220.71	73
220.944	39.49
221.178	-60.98
221.411	-142.76
221.645	96.06
221.879	76.52
222.113	136.67
222.347	44.51
222.58	-42.86
222.814	-27.75
223.048	-214.81
223.281	150.66
223.515	113.27
223.749	-120.62
223.982	-14.08
224.216	999
224.449	84.21
224.683	-133.66
224.916	-130.56
225.15	62.4
225.383	37
225.617	18.95
225.85	49.13
226.083	185.65
226.317	-20.91
226.55	203.52
226.783	122.22
227.016	41.74
227.25	-822.86
227.483	955.36
227.716	-17.42
227.949	64.57
228.182	161.08
228.415	-93.99
228.648	-201.88
228.881	62.06
229.114	-83.66
229.347	45.86
229.58	557
229.813	60.48
230.046	104.17
230.279	96.19
230.512	20.59
230.745	28.46
230.977	156.08
231.21	55.33
231.443	15.47
231.675	71.85
231.908	2611.76
232.141	47.93
232.373	-422.11
232.606	-140.14
232.839	13.45
233.071	-334.22
233.304	20.45
233.536	-66.32
233.769	112.9
234.001	59.33
234.233	-347.22
234.466	26.68
234.698	222.06
234.93	63.45
235.163	36.01
235.395	-25.58
235.627	-33.71
235.86	-656.52
236.092	76.4
236.324	-1.68
236.556	39.36
236.788	154.42
237.02	88.45
237.252	62.96
237.484	-2.33
237.716	483.33
237.948	39.27
238.18	23.14
238.412	14.07
238.644	126.17
238.876	-283.13
239.108	37.66
239.34	721.31
239.571	50
239.803	34.42
240.035	69.83
240.267	142.86
240.498	-311.11
240.73	721.31
240.962	79.4
241.193	169.68
241.425	-17.94
241.656	316.55
241.888	-55.98
242.119	22.01
242.351	-841.86
242.582	154.25
242.814	-138.02
243.045	61.28
243.277	-173.13
243.508	506.76
243.739	8.67
243.971	-34.87
244.202	61.05
244.433	158.96
244.664	26.06
244.896	-44.62
245.127	24.32
245.358	-158.93
245.589	-89.02
245.82	212.97
246.051	-52.02
246.282	92.75
246.513	-198.31
246.744	40.73
246.975	-76.83
247.206	95.05
247.437	-80
247.668	-226.85
247.899	19.18
248.129	-6.87
248.36	-23.56
248.591	29.6
248.822	1.82
249.052	-532.09
249.283	56.11
249.514	27.67
249.744	99.59
249.975	50
250.206	-9.71
250.436	12.46
250.667	166.91
250.897	21.86
251.128	-9.47
251.358	172.97
251.589	107.78
251.819	25.24
252.049	-107.22
252.28	-35.09
252.51	27.8
252.74	34.98
252.971	1025
253.201	148.83
253.431	34.63
253.661	-115.57
253.891	90.63
254.121	-40.77
254.352	122.22
254.582	1257.14
254.812	130.28
255.042	-123.12
255.272	21
255.502	35.87
255.732	5611.11
255.962	742.62
256.192	39.18
256.421	4.95
256.651	26.68
256.881	-80
257.111	86.25
257.341	39.49
257.57	107.88
257.8	46.02
258.03	20.18
258.259	3.89
258.489	35.6
258.719	-37.77
258.948	33.42
259.178	63.51
259.407	734.51
259.637	-129.52
259.866	25.63
260.096	33.67
260.325	294.22
260.555	-4.62
260.784	109.54
261.013	421.43
261.243	-14.15
261.472	14.86
261.701	12.44
261.931	-117.42
262.16	92.83
262.389	-29.19
262.618	-196.21
262.847	44.78
263.076	30.72
263.305	-26.77
263.535	-109.43
263.764	48.66
263.993	72.76
264.222	83.18
264.451	-38.64
264.679	40.58
264.908	22.18
265.137	10.48
265.366	27.23
265.595	95.61
265.824	53.98
266.053	-19.97
266.281	46.24
266.51	-35.79
266.739	20.84
266.967	21.81
267.196	375
267.425	50
267.653	-7.06
267.882	-57.06
268.11	328.57
268.339	37.18
268.567	-66.51
268.796	-108.4
269.024	769.64
269.253	44.88
269.481	47.93
269.709	-23.27
269.938	61.4
270.166	53.17
270.394	119.15
270.623	69.74
270.851	-79.24
271.079	26.68
271.307	65.79
271.535	163.04
271.764	-51.56
271.992	151.42
272.22	79.55
272.448	34.8
272.676	65.2
272.904	-88.97
273.132	-27.15
273.36	10.67
273.588	202.76
273.816	-39.82
274.043	-2.54
274.271	77.2
274.499	128
274.727	-395.37
274.955	15.21
275.182	-36.59
275.41	-145.7
275.638	118.05
275.866	1512.5
276.093	126.02
276.321	-244.34
276.548	21.97
276.776	-2.4
277.003	117.18
277.231	477.14
277.458	-121.35
277.686	-136.87
277.913	-15
278.141	42.63
278.368	92.55
278.595	34.34
278.823	-60.98
279.05	80.51
279.277	-45.75
279.505	-26.21
279.732	-201.2
279.959	1331.43
280.186	35.63
280.413	8.55
280.641	-291.91
280.868	3.01
281.095	-4.62
281.322	-1163.33
281.549	-12.65
281.776	-4.36
282.003	26.24
282.23	-66.55
282.457	85.83
282.683	55.2
282.91	-153.12
283.137	72.1
283.364	2059.09
283.591	-86.55
283.818	5575
284.044	-1355.81
284.271	80.31
284.498	-63.7
284.724	41.56
284.951	7
285.178	19.84
285.404	46.32
285.631	69.8
285.857	-6.42
286.084	-201.42
286.31	-98.91
286.537	81.52
286.763	-8.82
286.99	25.16
287.216	6333.33
287.442	-219.73
287.669	-37.46
287.895	74.36
288.121	213.67
288.347	82.77
288.574	-10.38
288.8	-18.86
289.026	-4.17
289.252	-128.05
289.478	-328.36
289.704	34.92
289.931	51.56
290.157	-72.25
290.383	-27.45
290.609	10.06
290.835	-8.13
291.06	-52.28
291.286	-13.12
291.512	-156.65
291.738	29.03
291.964	41.31
292.19	-184.87
292.416	-299.46
292.641	77.15
292.867	-28.26
293.093	1294.29
293.319	34.02
293.544	-23.86
293.77	98.92
293.995	226.73
294.221	-24.29
294.447	73
294.672	50
294.898	24.76
295.123	181.98
295.349	-89.87
295.574	287.8
295.799	54.5
296.025	30.37
296.25	-5.08
296.476	37
296.701	32.39
296.926	26.36
297.151	-112.5
297.377	-600
297.602	-85.76
297.827	74.25
298.052	131.25
298.277	11.13
298.502	11.54
298.727	75.59
298.953	-12.16
299.178	53.4
299.403	196.98
299.628	70.08
299.852	-53.78
300.077	-1517.65
300.302	7.82
300.527	-81.98
300.752	-115.25
300.977	206
301.202	231.15
301.426	3.94
301.651	-61.43
301.876	970.83
302.101	-51
302.325	23.56
302.55	52.35
302.775	-98.37
302.999	49.06
303.224	11.63
303.448	7.66
303.673	-455.56
303.897	22.41
304.122	-50.52
304.346	54.87
304.571	15.45
304.795	187.07
305.019	-62.29
305.244	40.3
305.468	612.16
305.692	180
305.917	-202.48
306.141	30.37
306.365	-152.46
306.589	-58.33
306.813	-21.81
307.038	-8.81
307.262	-12.21
307.486	-5.71
307.71	-1900
307.934	16.04
308.158	31.21
308.382	-37.44
308.606	-71.96
308.83	-20.43
309.054	-126.22
309.278	60.35
309.502	31.76
309.725	31.21
309.949	102.21
310.173	63.7
310.397	46.98
310.62	117.91
310.844	136.82
311.068	-169.37
311.292	55.9
311.515	7.44
311.739	916.67
311.962	-28.73
312.186	43.11
312.41	-50.49
312.633	-2.33
312.857	64.55
313.08	-106.48
313.303	25.21
313.527	-63.21
313.75	13.53
313.974	-31.1
314.197	5.42
314.42	-20.55
314.644	-17.87
314.867	-24.66
315.09	-30.56
315.313	46.17
315.536	46.89
315.76	-26.21
315.983	-50.61
316.206	-4.36
316.429	-234.37
316.652	-74.22
316.875	57.42
317.098	29.14
317.321	-55.15
317.544	-104.37
317.767	46.17
317.99	99.54
318.213	-6.49
318.436	-36.39
318.658	-10.03
318.881	-123.52
319.104	-61.43
319.327	28.13
319.55	166.53
319.772	115.56
319.995	-123.33
320.218	47.16
320.44	122.22
320.663	23.6
320.885	-190.86
321.108	20.45
321.331	-81.02
321.553	37.66
321.776	-9700
321.998	-2.87
322.22	-70.37
322.443	-18.94
322.665	35.56
322.888	26.58
323.11	34.99
323.332	-13.01
323.555	81.86
323.777	42.4
323.999	-66.62
324.221	67.42
324.443	-21.72
324.666	18.36
324.888	24.32
325.11	-62.81
325.332	138.19
325.554	-121.7
325.776	39.28
325.998	1123.26
326.22	-91.3
326.442	-10.59
326.664	18.67
326.886	-146.23
327.108	-66.55
327.33	-39.56
327.551	38.79
327.773	-1.26
327.995	-28.7
328.217	35.79
328.439	9.15
328.66	25.14
328.882	23.14
329.104	-785.71
329.325	43.18
329.547	44.18
329.769	0.66
329.99	-11.55
330.212	1104.92
330.433	5.21
330.655	8.42
330.876	32.43
331.098	678.69
331.319	-30.21
331.54	3.89
331.762	-21.19
331.983	68.27
332.204	-66.59
332.426	44.26
332.647	108.43
332.868	42.9
333.089	-133.79
333.311	-18.42
333.532	26.25
333.753	-2853.33
333.974	51.91
334.195	-119.57
334.416	73.17
334.637	-75.81
334.858	65.74
335.079	-223.68
335.3	-59.68
335.521	-116.58
335.742	-505.8
335.963	22.71
336.184	-74.6
336.405	11.69
336.626	28.19
336.846	4.75
337.067	9.76
337.288	62
337.509	-2550
337.729	48.34
337.95	-509.3
338.171	-181.91
338.391	-61.87
338.612	55.2
338.833	1160.42
339.053	-86.32
339.274	-1.87
339.494	-12.2
339.715	-11.9
339.935	87.03
340.156	38.98
340.376	-1.83
340.596	-20.55
340.817	1665.71
341.037	12.97
341.257	47.25
341.478	-19.98
341.698	81.79
341.918	-315.62
342.138	22.71
342.359	43.01
342.579	-9.45
342.799	-92.8
343.019	57.4
343.239	-9.42
343.459	-2.33
343.679	-3.53
343.899	59.63
344.119	43.14
344.339	-32.28
344.559	98.15
344.779	101.21
344.999	-12.01
345.219	27.59
345.439	21
345.658	6911.11
345.878	-166.67
346.098	-64.71
346.318	-46.04
346.537	877.27
346.757	322.58
346.977	44.72
347.196	44.1
347.416	107.35
347.636	-68.92
347.855	-59.24
348.075	-4.17
348.294	106.87
348.514	-178.7
348.733	24
348.953	97.89
349.172	104.89
349.392	-64.3
349.611	51.84
349.83	-2.99
350.05	-50.61
350.269	-21.81
350.488	45.35
350.707	117.24
350.927	54.19
351.146	34.88
351.365	-21.14
351.584	-73.11
351.803	29.92
352.023	-7.5
352.242	50.68
352.461	-33.78
352.68	5.98
352.899	25.15
353.118	0.61
353.337	-14.02
353.556	8.19
353.775	31.94
353.993	-68.78
354.212	51
354.431	7.66
354.65	65.12
354.869	-9.6
355.088	32.35
355.306	91.31
355.525	-22.58
355.744	-21.66
355.962	43.01
356.181	-108.11
356.4	-64.04
356.618	29.92
356.837	-75.38
357.055	7.38
357.274	45.33
357.492	-214.81
357.711	58.53
357.929	-25.58
358.148	-236
358.366	164.04
358.585	71.91
358.803	-162.38
359.021	538.94
359.24	61.23
359.458	-271.48
359.676	29.19
359.894	18.9
360.113	26.15
360.331	16.57
360.549	885.71
360.767	77.59
360.985	-105.22
361.203	12.79
361.421	37.12
361.639	22.34
361.857	53.32
362.075	-19.96
362.293	36.62
362.511	-143.35
362.729	-24.18
362.947	-65.2
363.165	-120.62
363.383	2.79
363.601	24
363.819	-9.39
364.036	-59.25
364.254	76.4
364.472	-53.36
364.689	139.72
364.907	-40.98
365.125	204.37
365.342	-209.25
365.56	5.41
365.778	-95.63
365.995	-437.5
366.213	-187.63
366.43	42.56
366.648	-69.62
366.865	32.79
367.083	71.94
367.3	-28.79
367.517	168.18
367.735	7.11
367.952	-14.17
368.17	-10.6
368.387	-15.17
368.604	14.95
368.821	-53.1
369.039	12.32
369.256	-38.73
369.473	33.87
369.69	-3.22
369.907	-3200
370.124	-9.09
370.341	241.18
370.558	35.26
370.776	31.78
370.993	9.59
371.21	44.51
371.426	-14.13
371.643	16.82
371.86	65.32
372.077	-26.21
372.294	16.84
372.511	19.77
372.728	29.54
372.945	48.09
373.161	14.25
373.378	46.2
373.595	-29.07
373.811	23.91
374.028	82.68
374.245	-20.32
374.461	87.03
374.678	-11.47
374.895	-7.35
375.111	38.98
375.328	47.79
375.544	629.73
375.761	1.82
375.977	39.8
376.194	74.87
376.41	-48.83
376.626	-73.02
376.843	25.11
377.059	40.82
377.275	15.01
377.492	32.07
377.708	-1.34
377.924	15.11
378.14	-66.62
378.357	78.07
378.573	-56.96
378.789	44.72
379.005	1.49
379.221	40.55
379.437	17.75
379.653	-21.79
379.869	7.21
380.085	-85.08
380.301	29.29
380.517	-6.17
380.733	-6.96
380.949	-49.47
381.165	14.24
381.381	-11.17
381.597	18.84
381.813	48.01
382.028	-19.19
382.244	-25.8
382.46	34.15
382.676	-5.37
382.891	-39.54
383.107	34.92
383.323	-4.17
383.538	-66.62
383.754	-15.32
383.969	43.37
384.185	-31.6
384.4	55.19
384.616	-51.19
384.831	16.18
385.047	-26.37
385.262	29.96
385.478	-7.42
385.693	28.68
385.909	38.04
386.124	-6.56
386.339	15.34
386.554	8.47
386.77	-23.96
386.985	-18.07
387.2	-29.9
387.415	33.44
387.631	37.28
387.846	12.49
388.061	-17.82
388.276	-36.03
388.491	19.48
388.706	-5.25
388.921	35.52
389.136	-2.49
389.351	36.64
389.566	-22.22
389.781	44.14
389.996	56.05
390.211	-17.16
390.426	15.96
390.641	-16.45
390.855	-7.67
391.07	41.31
391.285	1.85
391.5	-18.36
391.714	-9.87
391.929	0.1
392.144	9.62
392.358	-22.46
392.573	26.33
392.788	-10.98
393.002	-22.12
393.217	15.35
393.431	-9.58
393.646	12.43
393.86	-0.52
394.075	-17.18
394.289	-6.9
394.504	17.61
394.718	14.27
394.933	-13.93
395.147	7.91
395.361	13.72
395.576	10.19
395.79	-22.03
396.004	5.17
396.218	-18.42
396.432	-2.12
396.647	9.22
396.861	6.92
397.075	16.01
397.289	8.64
397.503	12.79
397.717	0.06
397.931	-5.05
398.145	-18.83
398.359	-1.11
398.573	-10.79
398.787	11.88
399.001	7.76
399.215	13.17
399.429	-5.77
399.643	-3.85
399.857	-1.44
400.07	-3.06
400.284	15.44
400.498	-2.82
400.712	3.68
400.925	4.75
401.139	2.92
401.353	0.33
401.566	4.17
401.78	1.29
401.994	-2.01
402.207	2.71
402.421	1.08
402.634	-14.65
402.848	6.71
403.061	-0.69
403.275	4.82
403.488	6.75
403.702	-3.45
403.915	6.78
404.128	-5.98
404.342	-0.72
404.555	0.03
404.768	2.77
404.982	0.4
405.195	-6.21
405.408	-4.2
405.621	0.92
405.835	9.38
406.048	0.79
406.261	2.15
406.474	6.54
406.687	-6.02
406.9	2.11
407.113	7.06
407.326	4.74
407.539	-4.21
407.752	0.46
407.965	-2.13
408.178	-1.53
408.391	1.45
408.604	3
408.817	-0.12
409.029	5.18
409.242	-1.35
409.455	1.98
409.668	2.74
409.881	3.87
410.093	-0.6
410.306	0.02
410.519	-1.4
410.731	3.33
410.944	-1.47
411.157	4.83
411.369	1.66
411.582	2.72
411.794	0.65
412.007	-0.76
412.219	3.41
412.432	0.61
412.644	1.28
412.857	2.57
413.069	0.75
413.281	3.01
413.494	4.03
413.706	3.31
413.918	4.27
414.131	1.98
414.343	-2.2
414.555	3.57
414.767	4.89
414.979	4.42
415.192	-0.91
415.404	0.57
415.616	1.62
415.828	-0.49
416.04	0.92
416.252	4.87
416.464	-0.79
416.676	2.1
416.888	2.25
417.1	-0.07
417.312	2.85
417.524	0.88
417.736	1.01
417.948	1.99
418.159	2.92
418.371	1.5
418.583	0.39
418.795	0.99
419.007	3.11
419.218	2.37
419.43	3.82
419.642	-0.51
419.853	0.08
420.065	3.79
420.276	-0.13
420.488	3.09
420.7	1.15
420.911	2.6
421.123	2.2
421.334	1.19
421.546	1.89
421.757	0.94
421.969	2.07
422.18	-0.74
422.391	2.04
422.603	-1.74
422.814	4.22
423.025	2.25
423.237	2.65
423.448	4.19
423.659	4.22
423.87	-0.81
424.082	3.58
424.293	3.24
424.504	3.89
424.715	2.26
424.926	3.93
425.137	0.81
425.348	4.64
425.559	4.03
425.77	3.37
425.981	3.54
426.192	4.37
426.403	1.16
426.614	-0.62
426.825	2.61
427.036	5.39
427.247	4.09
427.458	4.01
427.668	2.82
427.879	2.56
428.09	2.95
428.301	1.33
428.511	1.77
428.722	-0.72
428.933	3
429.143	1.95
429.354	3.31
429.565	5.91
429.775	3.9
429.986	3.52
430.196	3.34
430.407	2.69
430.617	2.62
430.828	1.08
431.038	3.98
431.249	1.79
431.459	3.54
431.669	1.72
431.88	4.85
432.09	4.52
432.3	4.9
432.511	4.37
432.721	4.3
432.931	3.2
433.141	1.45
433.351	1.07
433.562	3.96
433.772	6.69
433.982	3.79
434.192	7.45
434.402	4.59
434.612	3.69
434.822	4.98
435.032	6.93
435.242	4.56
435.452	4.44
435.662	4.2
435.872	4.55
436.082	5.59
436.292	4.81
436.502	7.54
436.711	4.17
436.921	5.77
437.131	6.53
437.341	4.11
437.551	7.07
437.76	7.8
437.97	4.25
438.18	4.06
438.389	9.32
438.599	5.77
438.808	5.34
439.018	7.14
439.228	7.66
439.437	4.94
439.647	4.88
439.856	7.43
440.066	8.08
440.275	7.55
440.484	11.2
440.694	7.54
440.903	10.93
441.113	9.26
441.322	9.25
441.531	7.98
441.741	7.93
441.95	8.88
442.159	9.98
442.368	10.31
442.577	7.16
442.787	9.87
442.996	8.83
443.205	9.42
443.414	9.95
443.623	12.71
443.832	11.49
444.041	11.62
444.25	11.25
444.459	12.06
444.668	12.16
444.877	10.91
445.086	12.82
445.295	11
445.504	15.02
445.713	15.86
445.922	12.61
446.13	15.11
446.339	13.04
446.548	12.97
446.757	13.67
446.965	10.06
447.174	14.52
447.383	15.05
447.591	12.83
447.8	12.67
448.009	15.96
448.217	12.76
448.426	13.72
448.634	16.29
448.843	14.91
449.051	18.04
449.26	17.99
449.468	19.01
449.677	16.93
449.885	15.28
450.093	17.13
450.302	13.92
450.51	16.98
450.719	15.61
450.927	14.37
451.135	15.81
451.343	16
451.552	18.47
451.76	17.06
451.968	17.47
452.176	14.65
452.384	16.81
452.592	17.43
452.8	14.14
453.009	13.78
453.217	15.59
453.425	14.08
453.633	15.3
453.841	15.75
454.049	14.95
454.257	13.28
454.464	15.64
454.672	13.84
454.88	16.65
455.088	11.37
455.296	15.33
455.504	14.43
455.711	13.39
455.919	13.74
456.127	14.18
456.335	14.78
456.542	11.82
456.75	14.93
456.958	10.92
457.165	12.49
457.373	13.38
457.581	9.85
457.788	9.01
457.996	10.45
458.203	14.49
458.411	12.32
458.618	6.86
458.826	13.44
459.033	11.76
459.24	11.12
459.448	9.51
459.655	12.11
459.863	8.15
460.07	9.66
460.277	9.03
460.484	11.07
460.692	9.75
460.899	7.23
461.106	6.76
461.313	11.02
461.52	6.11
461.728	6.5
461.935	8.28
462.142	5.23
462.349	9.78
462.556	7.66
462.763	12.31
462.97	6.49
463.177	9.62
463.384	8.01
463.591	7.21
463.798	7.36
464.005	6.05
464.212	7.33
464.418	5.86
464.625	5.66
464.832	7.12
465.039	3.73
465.246	8.58
465.452	6.46
465.659	7.25
465.866	4.53
466.072	3.95
466.279	8.12
466.486	6.93
466.692	6.87
466.899	6.76
467.105	4.16
467.312	5.01
467.519	4.23
467.725	4.99
467.931	4.29
468.138	2.5
468.344	6.37
468.551	1.89
468.757	3.61
468.964	6.47
469.17	2.08
469.376	6.5
469.583	4.14
469.789	8.14
469.995	3.63
470.201	4.69
470.408	5.61
470.614	5.69
470.82	2.85
471.026	-0.09
471.232	1.03
471.438	4.65
471.644	4.78
471.85	4.91
472.056	6.03
472.262	5.3
472.468	4.28
472.674	5.22
472.88	6.53
473.086	2.93
473.292	3.73
473.498	2.36
473.704	1.94
473.91	4.28
474.116	3.94
474.321	2.48
474.527	2
474.733	4.82
474.939	3.25
475.144	3.64
475.35	1.05
475.556	1.53
475.761	2.98
475.967	3.53
476.173	4.85
476.378	4.95
476.584	3.75
476.789	4.85
476.995	3.39
477.2	2.67
477.406	2.94
477.611	1.31
477.817	1.72
478.022	1.53
478.227	1.3
478.433	2.87
478.638	2.84
478.843	2.62
479.049	3.25
479.254	2.36
479.459	1.32
479.664	2.47
479.87	2.74
480.075	4.19
480.28	3.07
480.485	2.89
480.69	3.77
480.895	1.71
481.1	1.78
481.306	2.67
481.511	2.41
481.716	1.32
481.921	1.54
482.126	2.89
482.33	2.15
482.535	2.11
482.74	1.23
482.945	2
483.15	1.82
483.355	2.32
483.56	1.61
483.765	1.13
483.969	1.1
484.174	2.85
484.379	2.73
484.583	1.32
484.788	0.52
484.993	2.86
485.197	2.23
485.402	1.85
485.607	3.11
485.811	1.06
486.016	2.04
486.22	3.82
486.425	1.47
486.629	2.85
486.834	1.93
487.038	2.18
487.243	1.78
487.447	1.53
487.652	2.54
487.856	1.72
488.06	1.54
488.265	2
488.469	1.19
488.673	1.8
488.877	2.07
489.082	2.2
489.286	1.72
489.49	1.18
489.694	2.14
489.898	3.1
490.102	1.5
490.307	1.34
490.511	1.47
490.715	0.99
490.919	1.74
491.123	1.15
491.327	2.12
491.531	1.36
491.735	1.58
491.939	1.68
492.143	0.79
492.346	1.65
492.55	0.73
492.754	0.95
492.958	2.54
493.162	1.34
493.366	1.61
493.569	1.87
493.773	1.39
493.977	1.96
494.18	1.73
494.384	0.58
494.588	2.01
494.791	0.8
494.995	1.75
495.199	1.35
495.402	2.41
495.606	1.19
495.809	2.34
496.013	0.99
496.216	2.16
496.42	1.5
496.623	1.38
496.827	1.63
497.03	1.64
497.233	1.74
497.437	0.29
497.64	1.36
497.843	0.93
498.047	1.03
498.25	1.33
498.453	2.13
498.656	1.24
498.86	2.71
499.063	1.89
499.266	1.7
499.469	0.71
499.672	1.58
499.875	1.69
500.078	0.75
500.281	1.35
500.484	1.14
500.687	0.31
500.89	0.77
501.093	1.89
501.296	1.38
501.499	1.12
501.702	2.35
501.905	1.6
502.108	2.29
502.311	1.01
502.514	0.87
502.716	1.81
502.919	1.36
503.122	1.52
503.325	1.74
503.527	2.02
503.73	1.65
503.933	0.86
504.135	1.98
504.338	1.23
504.541	1.05
504.743	1.84
504.946	2.22
505.148	1.07
505.351	1.79
505.553	0.85
505.756	2.25
505.958	2.1
506.161	1.84
506.363	1.89
506.565	1.26
506.768	1.5
506.97	0.52
507.172	0.95
507.375	1.68
507.577	1.04
507.779	1.79
507.982	1.18
508.184	0.98
508.386	1.65
508.588	1.43
508.79	1.5
508.993	2.25
509.195	1.63
509.397	1.52
509.599	0.73
509.801	0.44
510.003	1.51
510.205	1.73
510.407	2.29
510.609	1.65
510.811	1.12
511.013	0.81
511.215	1.22
511.417	1.66
511.618	1.06
511.82	0.99
512.022	1.46
512.224	1.33
512.426	1.24
512.627	1.64
512.829	1.29
513.031	1.8
513.233	1.75
513.434	1.13
513.636	1.6
513.838	1.8
514.039	1.39
514.241	1.26
514.442	1.91
514.644	1.58
514.845	1.16
515.047	1.44
515.248	1.36
515.45	1.28
515.651	1.11
515.853	1.73
516.054	1.14
516.256	0.89
516.457	2.16
516.658	1.67
516.86	0.98
517.061	1.33
517.262	1.42
517.463	1.87
517.665	1.5
517.866	1
518.067	1.3
518.268	1.5
518.469	1.12
518.67	1.19
518.872	1.27
519.073	1.91
519.274	1.47
519.475	1.06
519.676	1.05
519.877	1.92
520.078	1.4
520.279	1.68
520.48	1.2
520.681	1.72
520.881	1.53
521.082	2.13
521.283	1.77
521.484	1.27
521.685	1.53
521.886	1.53
522.086	1.44
522.287	1.24
522.488	2.21
522.689	1.54
522.889	1.48
523.09	1.14
523.291	1.73
523.491	1.8
523.692	1.54
523.892	0.98
524.093	1.57
524.294	1.42
524.494	1.47
524.695	1.5
524.895	1.21
525.096	1.52
525.296	2.03
525.496	1.78
525.697	1.5
525.897	1.57
526.098	1.52
526.298	1.61
526.498	1.73
526.699	1.5
526.899	1.7
527.099	1.21
527.299	1.8
527.499	1.66
527.7	1.55
527.9	1.64
528.1	1.4
528.3	1.95
528.5	1.99
528.7	1.56
528.9	1.8
529.1	1.28
529.3	1.31
529.5	2
529.7	1.74
529.9	1.7
530.1	1.62
530.3	1.39
530.5	1.77
530.7	1.75
530.9	2.03
531.1	1.71
531.3	1.89
531.499	1.3
531.699	1.71
531.899	1.51
532.099	1.87
532.298	1.63
532.498	1.93
532.698	2.01
532.897	1.82
533.097	1.84
533.297	1.62
533.496	1.85
533.696	1.76
533.895	1.93
534.095	1.7
534.294	1.94
534.494	1.48
534.693	1.57
534.893	2.01
535.092	1.76
535.292	1.94
535.491	1.82
535.69	1.82
535.89	1.39
536.089	1.89
536.288	1.67
536.488	1.9
536.687	1.8
536.886	1.55
537.085	1.93
537.285	1.78
537.484	1.7
537.683	1.95
537.882	1.61
538.081	2.29
538.28	2.09
538.479	1.97
538.678	1.81
538.877	2.41
539.076	2.1
539.275	1.73
539.474	1.72
539.673	2.44
539.872	1.95
540.071	2.25
540.27	2.24
540.469	2.45
540.668	2.11
540.867	2.35
541.065	2.42
541.264	2.06
541.463	2.02
541.662	1.88
541.861	2.03
542.059	2.1
542.258	1.99
542.457	2.8
542.655	2.11
542.854	1.97
543.052	1.94
543.251	2.14
543.45	2.42
543.648	2.38
543.847	2.14
544.045	2.02
544.244	2.2
544.442	2.38
544.641	2.11
544.839	2.15
545.037	2.54
545.236	2.41
545.434	2.36
545.632	2.47
545.831	2.48
546.029	2.34
546.227	2.71
546.426	2.48
546.624	2.13
546.822	2.36
547.02	2.36
547.218	2.2
547.417	2.43
547.615	2.49
547.813	2.81
548.011	2.45
548.209	2.76
548.407	2.72
548.605	2.48
548.803	2.52
549.001	2.64
549.199	2.57
549.397	2.68
549.595	2.51
549.793	2.83
549.991	2.79
550.189	3.11
550.387	2.93
550.584	2.74
550.782	2.93
550.98	2.86
551.178	3.04
551.376	2.76
551.573	2.69
551.771	3.14
551.969	2.95
552.166	2.4
552.364	2.79
552.562	2.56
552.759	2.9
552.957	2.68
553.154	2.74
553.352	3.09
553.55	2.77
553.747	3
553.945	2.98
554.142	3.1
554.339	3.28
554.537	3.31
554.734	3.03
554.932	3.13
555.129	3.03
555.326	3.16
555.524	3.1
555.721	3.39
555.918	3.19
556.116	2.8
556.313	3.54
556.51	3.31
556.707	3.32
556.904	2.93
557.102	2.84
557.299	3.2
557.496	3.19
557.693	3.75
557.89	3.65
558.087	3.32
558.284	3.51
558.481	3.46
558.678	3.19
558.875	3.45
559.072	3.37
559.269	3.43
559.466	3.33
559.663	3.74
559.86	3.74
560.057	3.86
560.254	3.31
560.45	3.55
560.647	3.26
560.844	3.41
561.041	3.85
561.237	3.73
561.434	3.64
561.631	3.83
561.828	3.65
562.024	3.77
562.221	3.74
562.418	4.04
562.614	3.75
562.811	3.9
563.007	3.86
563.204	4.16
563.4	4.13
563.597	3.76
563.793	3.84
563.99	4.23
564.186	4.27
564.383	4.29
564.579	4.51
564.775	4.39
564.972	4.47
565.168	4.39
565.365	4.43
565.561	4.52
565.757	4.63
565.953	4.29
566.15	4.77
566.346	4.66
566.542	4.34
566.738	4.64
566.934	4.71
567.131	4.66
567.327	4.98
567.523	4.99
567.719	4.6
567.915	5.37
568.111	4.58
568.307	4.99
568.503	4.87
568.699	4.6
568.895	5.22
569.091	4.8
569.287	4.85
569.483	4.88
569.679	5.37
569.875	4.92
570.07	5
570.266	5.36
570.462	5.2
570.658	5.02
570.854	4.73
571.049	5.1
571.245	5.43
571.441	5.44
571.636	5.46
571.832	5.34
572.028	5.6
572.223	5.36
572.419	5.13
572.615	5.14
572.81	5.67
573.006	5.4
573.201	5.55
573.397	5.64
573.592	5.55
573.788	5.7
573.983	5.55
574.179	6.21
574.374	5.76
574.569	5.68
574.765	6.21
574.96	5.94
575.156	6
575.351	5.78
575.546	5.87
575.741	6.23
575.937	6.41
576.132	6.22
576.327	6.31
576.522	6.16
576.718	6.31
576.913	6.39
577.108	6.65
577.303	6.77
577.498	6.51
577.693	7.01
577.888	6.86
578.083	6.85
578.278	6.76
578.473	6.73
578.668	7.25
578.863	6.96
579.058	7.17
579.253	6.89
579.448	7.1
579.643	7.44
579.838	7.07
580.033	7.07
580.227	7.35
580.422	7.29
580.617	7.06
580.812	7.61
581.006	7.27
581.201	7.39
581.396	7.58
581.591	7.85
581.785	7.93
581.98	8.28
582.175	8.52
582.369	8.63
582.564	8.61
582.758	8.61
582.953	8.41
583.147	8.68
583.342	8.5
583.536	8.44
583.731	8.51
583.925	8.84
584.12	8.78
584.314	8.91
584.509	8.85
584.703	9.09
584.897	8.82
585.092	9.22
585.286	8.95
585.48	9.14
585.674	8.8
585.869	9.14
586.063	9.35
586.257	8.92
586.451	9.41
586.646	9.57
586.84	9.07
587.034	9.35
587.228	9.23
587.422	9.43
587.616	9.39
587.81	9.47
588.004	9.53
588.198	9.34
588.392	9.7
588.586	9.85
588.78	10.15
588.974	9.93
589.168	10.31
589.362	10.14
589.556	10.42
589.75	9.98
589.944	10.25
590.137	9.98
590.331	10.56
590.525	10.42
590.719	10.2
590.913	10.83
591.106	11.13
591.3	10.85
591.494	11.29
591.687	11.03
591.881	10.99
592.075	11.17
592.268	10.82
592.462	11.24
592.655	10.88
592.849	11.12
593.043	11.22
593.236	11.65
593.43	11.1
593.623	11.34
593.817	11.43
594.01	11.37
594.203	12.12
594.397	11.91
594.59	12.24
594.784	12.1
594.977	12.31
595.17	12.79
595.364	12.74
595.557	12.36
595.75	12.23
595.943	12.74
596.137	12.37
596.33	12.14
596.523	12.66
596.716	12.54
596.909	12.6
597.102	12.84
597.296	13.43
597.489	12.79
597.682	13.08
597.875	12.54
598.068	13.06
598.261	12.36
598.454	12.77
598.647	12.63
598.84	13.06
599.033	12.85
599.226	13.01
599.419	13.24
599.611	13.09
599.804	13.48
599.997	13.35
600.19	13.47
600.383	13.75
600.576	14.13
600.768	13.12
600.961	13.62
601.154	13.78
601.347	13.67
601.539	13.84
601.732	13.74
601.925	13.81
602.117	14.21
602.31	14.3
602.502	14.06
602.695	14.13
602.888	14.28
603.08	14.33
603.273	14.27
603.465	14.8
603.658	14.79
603.85	14.51
604.043	14.49
604.235	14.32
604.427	14.31
604.62	14.29
604.812	14.82
605.004	14.78
605.197	14.56
605.389	15.19
605.581	14.53
605.774	14.99
605.966	14.83
606.158	14.85
606.35	15.34
606.543	15.1
606.735	15.11
606.927	15.48
607.119	15.14
607.311	15.51
607.503	15.78
607.695	15.66
607.887	15.58
608.079	15.71
608.271	15.85
608.463	15.8
608.655	16.14
608.847	16.33
609.039	15.87
609.231	16.42
609.423	15.77
609.615	16.16
609.807	16.23
609.999	16.39
610.191	16.16
610.382	16.26
610.574	16.02
610.766	16.42
610.958	16.47
611.15	16.04
611.341	16.23
611.533	16.19
611.725	15.8
611.916	16.18
612.108	16.4
612.3	16.15
612.491	16.15
612.683	16.16
612.874	16.53
613.066	16.86
613.257	16.81
613.449	16.24
613.64	16.11
613.832	16.07
614.023	16.39
614.215	17.05
614.406	16.93
614.598	16.87
614.789	17.2
614.98	17.02
615.172	16.89
615.363	16.91
615.554	16.99
615.746	16.83
615.937	16.81
616.128	17.06
616.319	17.41
616.511	16.89
616.702	17.2
616.893	17.63
617.084	17.34
617.275	17.76
617.466	17.5
617.658	17.66
617.849	17.57
618.04	16.87
618.231	16.82
618.422	17.25
618.613	17.07
618.804	17.23
618.995	17.05
619.186	16.87
619.377	17.14
619.568	16.88
619.758	16.9
619.949	16.88
620.14	16.4
620.331	17.01
620.522	17.34
620.713	17
620.903	16.99
621.094	17.32
621.285	17.58
621.476	16.91
621.666	17.08
621.857	17.51
622.048	17.66
622.238	17.47
622.429	17.9
622.62	18.08
622.81	18.4
623.001	18.37
623.191	17.89
623.382	17.82
623.572	17.34
623.763	17.41
623.953	17.31
624.144	17.16
624.334	17.86
624.525	17.49
624.715	17.73
624.905	17.5
625.096	17.88
625.286	17.38
625.477	17.56
625.667	17.8
625.857	17.32
626.047	16.87
626.238	17.55
626.428	17.35
626.618	17.74
626.808	17.73
626.999	17.65
627.189	17.57
627.379	17.71
627.569	17.56
627.759	17.28
627.949	17.93
628.139	17.36
628.329	17.43
628.519	17.46
628.709	17.4
628.899	17.34
629.089	17.09
629.279	17.37
629.469	17.08
629.659	17.27
629.849	17.21
630.039	16.8
630.229	17.04
630.419	17.05
630.609	17.7
630.798	16.9
630.988	17.19
631.178	17.31
631.368	16.99
631.557	17.4
631.747	17.33
631.937	17.53
632.127	17.54
632.316	18.18
632.506	18.43
632.696	18.27
632.885	18.25
633.075	17.91
633.264	17.87
633.454	17.9
633.643	17.8
633.833	18
634.022	17.79
634.212	17.57
634.401	17.71
634.591	18.13
634.78	17.83
634.97	18.06
635.159	18.11
635.348	17.8
635.538	18
635.727	17.99
635.916	17.98
636.106	17.78
636.295	18.02
636.484	17.57
636.674	17.48
636.863	17.3
637.052	16.94
637.241	16.87
637.43	16.96
637.619	16.76
637.809	17.58
637.998	17.7
638.187	17.62
638.376	17.59
638.565	18.22
638.754	18.08
638.943	17.81
639.132	17.21
639.321	17.1
639.51	16.58
639.699	16.7
639.888	16.56
640.077	16.5
640.266	16.78
640.455	17.12
640.643	16.88
640.832	16.63
641.021	17.26
641.21	16.82
641.399	16.93
641.587	17.52
641.776	17.25
641.965	17.57
642.154	17.71
642.342	17.64
642.531	17.28
642.72	17.14
642.908	17.55
643.097	17.45
643.286	17.33
643.474	17.35
643.663	17.16
643.851	17
644.04	17.04
644.228	17.38
644.417	17.13
644.605	17.77
644.794	17.41
644.982	17.8
645.171	17.66
645.359	17.61
645.547	17.79
645.736	17.08
645.924	17.06
646.112	16.75
646.301	16.37
646.489	16.72
646.677	16.25
646.866	16.57
647.054	16.18
647.242	16.57
647.43	16.66
647.618	16.56
647.807	16.59
647.995	16.25
648.183	16.72
648.371	15.96
648.559	16.11
648.747	16.9
648.935	16.92
649.123	16.88
649.311	17
649.499	16.82
649.687	17.19
649.875	16.19
650.063	16.51
650.251	16.09
650.439	16.68
650.627	16.49
650.815	16.79
651.003	16.38
651.191	16.88
651.378	16.94
651.566	16.98
651.754	16.22
651.942	16.8
652.13	16.56
652.317	16.42
652.505	16.39
652.693	16.42
652.88	16.05
653.068	15.89
653.256	16.04
653.443	16.05
653.631	15.85
653.819	16.44
654.006	16.35
654.194	16.36
654.381	16.47
654.569	16.32
654.756	15.98
654.944	15.94
655.131	16.38
655.319	16.79
655.506	16.68
655.693	16.91
655.881	17.02
656.068	16.56
656.256	16.62
656.443	16.81
656.63	16.75
656.818	16.9
657.005	16.4
657.192	17.17
657.379	16.86
657.567	17.15
657.754	17.11
657.941	16.8
658.128	16.75
658.315	16.78
658.502	16.27
658.69	16.63
658.877	16.86
659.064	16.65
659.251	16.74
659.438	17.07
659.625	16.83
659.812	16.08
659.999	16.53
660.186	16.41
660.373	16.34
660.56	16.3
660.747	16.52
660.934	16.89
661.121	16.96
661.308	16.62
661.494	16.71
661.681	16.72
661.868	16.85
662.055	16.69
662.242	16.35
662.428	16.67
662.615	16.43
662.802	17.38
662.989	16.77
663.175	17.5
663.362	17.62
663.549	17.26
663.735	17.08
663.922	17.15
664.109	16.75
664.295	16.82
664.482	16.82
664.668	16.34
664.855	16.36
665.041	16.33
665.228	16.04
665.414	16.44
665.601	16.72
665.787	16.94
665.974	16.42
666.16	16.01
666.347	15.83
666.533	15.87
666.719	16.04
666.906	15.71
667.092	16.42
667.278	16.47
667.465	16.66
667.651	16.82
667.837	17.16
668.023	17.03
668.21	16.9
668.396	17.05
668.582	16.79
668.768	16.39
668.954	17.07
669.14	16.32
669.327	16.75
669.513	16.97
669.699	16.89
669.885	17.19
670.071	16.8
670.257	17.28
670.443	17.15
670.629	16.9
670.815	16.96
671.001	16.92
671.187	16.82
671.373	16.56
671.559	16.52
671.744	17.1
671.93	16.67
672.116	16.53
672.302	17.19
672.488	17.02
672.674	17.09
672.859	17.5
673.045	17.06
673.231	16.97
673.417	17.23
673.602	16.63
673.788	16.83
673.974	17.14
674.159	16.82
674.345	16.75
674.531	16.82
674.716	17.01
674.902	16.85
675.087	17.07
675.273	16.85
675.459	17.5
675.644	16.74
675.83	17.44
676.015	16.78
676.2	16.95
676.386	17.05
676.571	16.43
676.757	16.48
676.942	16.29
677.128	16.21
677.313	15.76
677.498	16.13
677.684	16.34
677.869	16.55
678.054	17.14
678.24	17.19
678.425	17.57
678.61	17.57
678.795	17.75
678.98	17.68
679.166	17.25
679.351	17.14
679.536	16.63
679.721	17
679.906	17.39
680.091	17.02
680.276	16.82
680.461	16.81
680.647	16.97
680.832	17.15
681.017	17.1
681.202	17.11
681.387	17.24
681.572	16.99
681.756	17.09
681.941	16.76
682.126	17
682.311	16.59
682.496	16.75
682.681	16.51
682.866	16.89
683.051	16.99
683.235	17
683.42	17.8
683.605	17.55
683.79	17.71
683.974	17.53
684.159	16.93
684.344	16.62
684.529	17.23
684.713	16.94
684.898	16.83
685.083	16.29
685.267	16.27
685.452	16.77
685.636	16.93
685.821	16.6
686.005	16.76
686.19	17.12
686.375	16.96
686.559	16.95
686.744	16.28
686.928	16.35
687.112	16.65
687.297	17.19
687.481	16.68
687.666	16.58
687.85	16.52
688.034	16.42
688.219	16.77
688.403	16.5
688.587	16.56
688.772	16.72
688.956	16.3
689.14	16.98
689.324	16.54
689.509	16.7
689.693	16.26
689.877	16.24
690.061	16.61
690.245	16.37
690.43	16.59
690.614	16.46
690.798	16.01
690.982	16.65
691.166	16.2
691.35	15.99
691.534	16.18
691.718	16.45
691.902	16.19
692.086	16.33
692.27	16.3
692.454	16.54
692.638	17.12
692.822	17.03
693.006	16.68
693.19	16.58
693.373	16.24
693.557	16.77
693.741	16.28
693.925	16.55
694.109	16.12
694.293	16.71
694.476	16.54
694.66	16.62
694.844	16.8
695.027	16.78
695.211	16.65
695.395	17.34
695.578	16.69
695.762	16.31
695.946	16.34
696.129	16.01
696.313	16.07
696.497	16.15
696.68	16.24
696.864	16.03
697.047	16.11
697.231	16.31
697.414	15.52
697.598	15.41
697.781	15.52
697.965	15.57
698.148	15.75
698.331	15.57
698.515	15.56
698.698	15.83
698.881	15.68
699.065	16.01
699.248	16.07
699.431	16.04
699.615	15.8
699.798	15.97
699.981	16.07
700.165	15.44
700.348	15.43
700.531	15.45
700.714	15.6
700.897	15.21
701.08	15.49
701.264	15.41
701.447	15.07
701.63	15.27
701.813	16.22
701.996	16.17
702.179	16.36
702.362	16.23
702.545	16.15
702.728	15.92
702.911	15.96
703.094	16.05
703.277	16.23
703.46	17.04
703.643	16.5
703.826	15.77
704.009	15.81
704.191	15.88
704.374	15.34
704.557	15.55
704.74	15.77
704.923	16.13
705.106	15.55
705.288	14.95
705.471	15.17
705.654	15.47
705.837	15.2
706.019	15.75
706.202	15.99
706.385	15.51
706.567	15.42
706.75	15.34
706.932	15.44
707.115	15.18
707.298	14.97
707.48	14.32
707.663	14.66
707.845	15.29
708.028	14.94
708.21	14.84
708.393	15.13
708.575	15.18
708.758	15.32
708.94	15.83
709.123	15.89
709.305	15.39
709.487	15.25
709.67	15.72
709.852	15.51
710.034	15.6
710.217	15.08
710.399	15.51
710.581	14.97
710.764	15.34
710.946	15.33
711.128	14.79
711.31	14.95
711.492	15.15
711.675	15.17
711.857	15.24
712.039	15.58
712.221	15.62
712.403	15.03
712.585	14.77
712.767	14.82
712.949	15.04
713.131	15.18
713.314	15.37
713.496	15.02
713.678	15.35
713.86	15.44
714.041	15.33
714.223	15.28
714.405	15.25
714.587	15.07
714.769	14.25
714.951	14.86
715.133	14.81
715.315	15.25
715.497	15.78
715.678	15.14
715.86	15.18
716.042	14.93
716.224	14.63
716.406	14.7
716.587	15.19
716.769	14.42
716.951	15.05
717.132	14.93
717.314	15.05
717.496	15.15
717.677	14.98
717.859	15.08
718.041	14.47
718.222	14.15
718.404	14.18
718.585	14.22
718.767	14.29
718.948	14.89
719.13	14.41
719.311	14.69
719.493	14.38
719.674	14.51
719.856	14.24
720.037	14.45
720.219	14.45
720.4	14.4
720.581	14.32
720.763	14.27
720.944	14.83
721.125	14.47
721.307	14.08
721.488	14.67
721.669	14.12
721.85	14.47
722.032	13.8
722.213	14.39
722.394	14
722.575	14.35
722.756	14.33
722.938	13.89
723.119	13.95
723.3	13.9
723.481	13.99
723.662	13.85
723.843	13.14
724.024	13.41
724.205	14.16
724.386	13.83
724.567	14.23
724.748	13.95
724.929	14.53
725.11	14.41
725.291	14.63
725.472	14.47
725.653	14.47
725.834	14.4
726.015	14.36
726.196	13.97
726.377	14.12
726.557	14.34
726.738	14.98
726.919	14.22
727.1	14.16
727.281	13.68
727.461	13.78
727.642	13.55
727.823	13.35
728.004	13.39
728.184	13.79
728.365	14.28
728.546	13.51
728.726	13.54
728.907	13.54
729.087	13.42
729.268	13.73
729.449	13.66
729.629	13.27
729.81	13.31
729.99	13.41
730.171	13.18
730.351	13.67
730.532	12.95
730.712	12.64
730.893	13.53
731.073	13.18
731.253	12.89
731.434	13.35
731.614	13.02
731.795	12.97
731.975	12.89
732.155	13.42
732.336	13.45
732.516	13.42
732.696	13.39
732.876	13.7
733.057	13.59
733.237	13.8
733.417	12.69
733.597	12.97
733.778	13.11
733.958	12.96
734.138	13.25
734.318	12.78
734.498	12.97
734.678	12.63
734.858	12.93
735.038	13.24
735.218	13.32
735.398	13.01
735.579	13.26
735.759	13.36
735.939	13.67
736.119	13.24
736.298	13.5
736.478	13.4
736.658	13.25
736.838	13.15
737.018	12.79
737.198	13.31
737.378	13.14
737.558	13.2
737.738	12.53
737.917	12.99
738.097	12.92
738.277	13.21
738.457	13.16
738.637	12.6
738.816	12.91
738.996	13.23
739.176	13.2
739.355	12.3
739.535	12.24
739.715	12.66
739.894	12.58
740.074	12.03
740.254	12.41
740.433	11.97
740.613	12.06
740.792	12.22
740.972	12.89
741.151	12.61
741.331	12.7
741.51	12.77
741.69	13.05
741.869	13.05
742.049	12.55
742.228	12.78
742.408	11.99
742.587	12.68
742.766	11.88
742.946	12.18
743.125	12.93
743.305	12.54
743.484	12.85
743.663	13.34
743.842	12.49
744.022	11.85
744.201	12.42
744.38	12.85
744.56	12.47
744.739	13.03
744.918	13.03
745.097	12.32
745.276	12.16
745.455	11.87
745.635	11.61
745.814	12.49
745.993	13.02
746.172	11.99
746.351	13.03
746.53	13.08
746.709	12.95
746.888	12.68
747.067	12.67
747.246	12.45
747.425	12.65
747.604	12.71
747.783	12.32
747.962	12.43
748.141	12.84
748.32	12.78
748.499	12.31
748.677	12.82
748.856	12.1
749.035	12.29
749.214	12.26
749.393	12.69
749.572	12.17
749.75	12
749.929	12.44
750.108	12.49
750.287	12.62
750.465	12.19
750.644	11.65
750.823	11.87
751.001	11.95
751.18	12.82
751.359	12.13
751.537	12.03
751.716	12.04
751.894	11.88
752.073	11.4
752.251	11.01
752.43	11.61
752.609	12.08
752.787	12.26
752.966	11.31
753.144	11.88
753.322	10.7
753.501	11.12
753.679	11.32
753.858	10.51
754.036	10.64
754.215	10.98
754.393	10
754.571	10.85
754.75	10.87
754.928	10.79
755.106	11.43
755.284	11.23
755.463	11.97
755.641	11.25
755.819	11.62
755.997	11.87
756.176	11.76
756.354	11.97
756.532	12.13
756.71	11.88
756.888	11.31
757.066	11.14
757.245	11.08
757.423	11.39
757.601	11.19
757.779	10.91
757.957	10.96
758.135	10.89
758.313	11.06
758.491	11.43
758.669	10.99
758.847	11.09
759.025	11.09
759.203	11.57
759.381	11.54
759.559	11.22
759.737	10.95
759.915	11.05
760.092	11.16
760.27	11.26
760.448	11.08
760.626	11.26
760.804	11.28
760.981	10.98
761.159	11.08
761.337	11.49
761.515	11.59
761.692	11.05
761.87	11.09
762.048	10.34
762.226	10.94
762.403	11.24
762.581	10.63
762.759	10.71
762.936	11.27
763.114	11.92
763.291	11.07
763.469	11.05
763.647	10.97
763.824	11.45
764.002	11.87
764.179	11.12
764.357	11.08
764.534	11.09
764.712	11.13
764.889	10.59
765.066	10.73
765.244	9.75
765.421	10.23
765.599	10.8
765.776	10.33
765.953	10.88
766.131	10.86
766.308	10.22
766.485	11.44
766.663	10.5
766.84	10.97
767.017	10.23
767.194	10.74
767.372	10.49
767.549	10.54
767.726	11.2
767.903	10.18
768.081	10.01
768.258	10.01
768.435	10.14
768.612	9.95
768.789	11.15
768.966	10.74
769.143	10.26
769.32	10.74
769.497	10.38
769.674	10.38
769.851	10.16
770.028	10.47
770.205	10.84
770.382	10.14
770.559	10.37
770.736	10.98
770.913	10.38
771.09	11.01
771.267	9.14
771.444	10.82
771.621	9.87
771.798	9.96
771.975	10.41
772.151	10.35
772.328	10.32
772.505	9.92
772.682	10.35
772.859	10.5
773.035	9.75
773.212	9.84
773.389	11.03
773.565	10.32
773.742	10.81
773.919	10.13
774.096	9.78
774.272	11.28
774.449	8.61
774.625	9.92
774.802	10.05
774.979	10.82
775.155	10.37
775.332	9.8
775.508	10.81
775.685	10.8
775.861	10.65
776.038	10.67
776.214	9.38
776.391	9.89
776.567	9.68
776.744	10.11
776.92	11.72
777.096	10.35
777.273	9.2
777.449	9.78
777.626	10.69
777.802	10.12
777.978	10.1
778.155	10.68
778.331	9.47
778.507	10.34
778.683	8.24
778.86	9.92
779.036	10.32
779.212	10.96
779.388	10.16
779.565	8.8
779.741	11.02
779.917	10.41
780.093	9.45
780.269	8.78
780.445	10.4
780.621	10.05
780.797	10.63
780.974	9.16
781.15	9.91
781.326	10.07
781.502	9.36
781.678	9.26
781.854	10.5
782.03	8.34
782.206	9.89
782.382	9.87
782.558	10.28
782.733	10.06
782.909	10.48
783.085	9.98
783.261	10.01
783.437	8.5
783.613	9.24
783.789	9.6
783.965	9.97
784.14	8.51
784.316	8.82
784.492	9.17
784.668	9.15
784.843	9.43
785.019	10.77
785.195	7.02
785.371	10.4
785.546	8.35
785.722	8.94
785.898	8.07
786.073	9.63
786.249	10.11
786.424	10.01
786.6	9.17
786.776	9.43
786.951	8.59
787.127	9.33
787.302	8.76
787.478	8.25
787.653	8.24
787.829	8.22
788.004	9.48
788.18	10.02
788.355	9.49
788.531	9.82
788.706	8.92
788.881	6.64
789.057	9.93
789.232	8.49
789.408	9.62
789.583	9.45
789.758	9.58
789.934	7.97
790.109	8.78
790.284	11.05
790.459	9.88
790.635	8.75
790.81	8.97
790.985	10.17
791.16	8
791.336	8.32
791.511	8.81
791.686	8.72
791.861	10.65
792.036	10.98
792.211	8.58
792.387	10.04
792.562	9.84
792.737	7.89
792.912	8.07
793.087	10.26
793.262	8.8
793.437	8.9
793.612	8.77
793.787	9.39
793.962	8.11
794.137	8.45
794.312	7.47
794.487	9.44
794.662	7.92
794.837	9.27
795.011	7.57
795.186	11.24
795.361	7.55
795.536	7.29
795.711	6.84
795.886	8.88
796.06	5.46
796.235	8.42
796.41	7.02
796.585	7.91
796.76	7.81
796.934	9.31
797.109	11.08
797.284	7.35
797.458	7.13
797.633	10.04
797.808	7.5
797.982	10.77
798.157	9.6
798.332	9.74
798.506	8.18
798.681	8.73
798.855	9.16
799.03	8.74
799.204	11.5
799.379	8.89
799.553	8.15
799.728	6.87
799.902	8.66
800.077	6.26
800.251	10.91
800.426	9.28
800.6	9.82
800.775	7.98
800.949	11.62
801.123	12.27
801.298	8.36
801.472	8.41
801.647	5.16
801.821	6.09
801.995	7.93
802.169	9.27
802.344	9.29
802.518	7.97
802.692	6.65
802.867	6.88
803.041	8.85
803.215	9.03
803.389	10.31
803.563	4.45
803.737	8.56
803.912	8.48
804.086	9.22
804.26	10.48
804.434	7.5
804.608	5.92
804.782	9.02
804.956	11.55
805.13	11.24
805.304	7.41
805.478	8.32
805.652	14.27
805.826	10.43
806	11.81
806.174	6.95
806.348	8.77
806.522	6.55
806.696	9.11
806.87	10.34
807.044	8
807.218	11.99
807.392	11.42
807.566	7.58
807.739	10.79
807.913	8.12
808.087	11.7
808.261	7.83
808.435	8.83
808.608	5.39
808.782	6.95
808.956	10.81
809.13	5.22
809.303	9.14
809.477	11.35
809.651	12.03
809.824	6.42
809.998	8.49
810.172	11.1
810.345	11.85
810.519	6.37
810.692	8.27
810.866	3.72
811.04	9.28
811.213	8.31
811.387	10.33
811.56	10.74
811.734	9.37
811.907	10.85
812.081	7.78
812.254	8.94
812.428	6.86
812.601	7.47
812.774	7.73
812.948	9.33
813.121	11.01
813.295	7.78
813.468	7.93
813.641	4.14
813.815	7.67
813.988	11.25
814.161	4.74
814.335	12.84
814.508	7.26
814.681	6.71
814.854	9.52
815.028	8.86
815.201	7.6
815.374	5.25
815.547	9.07
815.72	10.01
815.894	7.17
816.067	10.4
816.24	10.32
816.413	11.59
816.586	9.22
816.759	9.88
816.932	5.38
817.105	11.42
817.278	8.43
817.452	9.98
817.625	8.47
817.798	7.61
817.971	10.73
818.144	10.57
818.317	12.94
818.49	7.64
818.662	7.6
818.835	11.31
819.008	6.32
819.181	10.82
819.354	8.53
819.527	9.13
819.7	8.05
819.873	9.88
820.046	11.69
820.218	9.69
820.391	10.97
820.564	9.74
820.737	6.07
820.909	12.37
821.082	5.86
821.255	8.17
821.428	7.76
821.6	10.06
821.773	6.69
821.946	8.47
822.118	9.5
822.291	11.64
822.464	3.51
822.636	10.49
822.809	7.35
822.982	9.2
823.154	9.63
823.327	9.15
823.499	10.24
823.672	8.2
823.844	3.58
824.017	9.38
824.189	9.83
824.362	9.93
824.534	9.41
824.707	8.36
824.879	8.16
825.052	8.28
825.224	9.54
825.396	6.55
825.569	8.59
825.741	8.95
825.914	9.79
826.086	10.06
826.258	8.64
826.431	10.28
826.603	5.62
826.775	12.83
826.947	8.34
827.12	13.41
827.292	9.58
827.464	6.1
827.636	9.88
827.809	8.89
827.981	11.74
828.153	7.93
828.325	7.16
828.497	8.45
828.669	6.27
828.842	5.63
829.014	8.43
829.186	7.32
829.358	11.03
829.53	12.79
829.702	7.08
829.874	10.87
830.046	9
830.218	12.22
830.39	8.5
830.562	12.4
830.734	8.92
830.906	10.25
831.078	9.07
831.25	10.98
831.422	7.48
831.594	9.99
831.766	10.82
831.937	6.25
832.109	13.91
832.281	9.21
832.453	6.5
832.625	9.72
832.797	8.01
832.968	8.52
833.14	10.75
833.312	6.36
833.484	7.91
833.655	10.39
833.827	7.53
833.999	8.55
834.171	5.81
834.342	12.53
834.514	9.09
834.686	8.45
834.857	8.11
835.029	6.27
835.2	12.08
835.372	8.65
835.544	8.2
835.715	9.88
835.887	7.34
836.058	7.94
836.23	10.42
836.401	12.1
836.573	9.22
836.744	9.1
836.916	3.79
837.087	4.44
837.259	11.51
837.43	9.29
837.602	3.21
837.773	4.99
837.945	8.08
838.116	6.39
838.287	6.33
838.459	7.52
838.63	10.42
838.801	9.67
838.973	7.53
839.144	9.34
839.315	10.74
839.487	6.51
839.658	13.51
839.829	9.78
840	6.59
840.172	8.37
840.343	9.67
840.514	9.91
840.685	8.89
840.856	6.67
841.027	13.84
841.199	10.12
841.37	4.68
841.541	5.67
841.712	10.91
841.883	10.94
842.054	10.61
842.225	8.68
842.396	9.42
842.567	3.72
842.738	10.71
842.909	11.42
843.08	9.23
843.251	11.24
843.422	4
843.593	8.1
843.764	8.97
843.935	9.83
844.106	9.59
844.277	9.39
844.448	10.39
844.619	7.52
844.79	10.17
844.96	7.18
845.131	8.88
845.302	10.22
845.473	3.02
845.644	9.93
845.814	9.63
845.985	7.88
846.156	10.54
846.327	1.82
846.497	6.9
846.668	6.77
846.839	9.46
847.01	8.52
847.18	10.47
847.351	11.42
847.522	10.64
847.692	8.12
847.863	5.59
848.033	10.5
848.204	10.81
848.375	4.21
848.545	8.98
848.716	11.1
848.886	10.87
849.057	10.6
849.227	10.2
849.398	6.06
849.568	8.2
849.739	7.77
849.909	5.83
850.08	9.6
850.25	10.52
850.421	6.96
850.591	7.03
850.761	5.96
850.932	6.53
851.102	4.59
851.272	13.2
851.443	10.29
851.613	5.29
851.783	11.78
851.954	10.27
852.124	11.65
852.294	8.64
852.465	9.72
852.635	5.19
852.805	11.37
852.975	4.6
853.145	10.1
853.316	9.02
853.486	7.3
853.656	5.89
853.826	3.83
853.996	7.46
854.166	7.93
854.337	11.28
854.507	11.83
854.677	11.43
854.847	13.44
855.017	2.77
855.187	12.86
855.357	3.48
855.527	6.23
855.697	5.77
855.867	7.37
856.037	9.53
856.207	11.45
856.377	6.35
856.547	11.26
856.717	18.35
856.887	10.43
857.057	13.08
857.227	12.79
857.397	11.67
857.566	12.84
857.736	6.59
857.906	4.75
858.076	10.23
858.246	5.88
858.416	8.75
858.585	8.82
858.755	8.99
858.925	8.03
859.095	13.98
859.264	13.13
859.434	4.55
859.604	6.39
859.774	5.6
859.943	6.24
860.113	3.02
860.283	11.11
860.452	11.75
860.622	12.11
860.791	9.36
860.961	9.84
861.131	6.72
861.3	8.81
861.47	11.09
861.639	2.47
861.809	17.54
861.978	6.84
862.148	8.31
862.318	14
862.487	4.79
862.657	5.17
862.826	3.56
862.995	13.38
863.165	15.98
863.334	7.34
863.504	5.73
863.673	10.33
863.843	2.5
864.012	19
864.181	11.11
864.351	13.14
864.52	5.92
864.689	1.6
864.859	-1.19
865.028	2.04
865.197	1.17
865.366	11.78
865.536	13.34
865.705	15.3
865.874	5.51
866.043	1.3
866.213	8.86
866.382	4
866.551	4.46
866.72	9.57
866.889	7.13
867.059	1.98
867.228	12.11
867.397	1.19
867.566	-1.03
867.735	10.93
867.904	13.9
868.073	6.39
868.242	12.22
868.411	4.08
868.58	15.14
868.749	13.54
868.918	6.86
869.087	12.67
869.256	3.66
869.425	11.36
869.594	6.45
869.763	5.78
869.932	17.78
870.101	-0.43
870.27	0.27
870.439	1.66
870.608	7.59
870.777	4.79
870.945	6.55
871.114	16.69
871.283	2.26
871.452	17.18
871.621	11.37
871.789	5.85
871.958	10.22
872.127	1.72
872.296	1.72
872.464	19.71
872.633	9.08
872.802	12.19
872.971	12.28
873.139	7.5
873.308	12.73
873.477	13.02
873.645	7.39
873.814	17.24
873.983	-4.55
874.151	11.01
874.32	5.39
874.488	14.95
874.657	11.5
874.826	17.75
874.994	15.73
875.163	-3.55
875.331	12.14
875.5	9.42
875.668	9.59
875.837	12.22
876.005	12.75
876.174	10.09
876.342	10.65
876.51	9.03
876.679	8.87
876.847	18.32
877.016	0.85
877.184	5.99
877.352	7.06
877.521	20.22
877.689	8.34
877.857	10.9
878.026	8.09
878.194	19.32
878.362	4.08
878.531	13.74
878.699	13.37
878.867	2.96
879.036	3.56
879.204	11.68
879.372	14.04
879.54	14.77
879.708	16.26
879.877	15.76
880.045	11.48
880.213	11.11
880.381	12.67
880.549	15.75
880.717	16.89
880.885	5.1
881.054	6.84
881.222	18.71
881.39	11.84
881.558	15.12
881.726	2.31
881.894	19.38
882.062	12.23
882.23	19.82
882.398	14.87
882.566	-0.26
882.734	0.63
882.902	10.7
883.07	-0.95
883.238	9.98
883.406	10.87
883.574	5.51
883.741	3.47
883.909	-1.89
884.077	8.98
884.245	13.72
884.413	-4.67
884.581	-1
884.749	4.34
884.916	3.14
885.084	16.42
885.252	23.41
885.42	6.25
885.587	20.43
885.755	5.91
885.923	4.39
886.091	5.09
886.258	7.66
886.426	-4.6
886.594	0.05
886.761	11.9
886.929	-2.78
887.097	6.42
887.264	12.61
887.432	5.85
887.6	-0.3
887.767	12.92
887.935	10.36
888.102	21
888.27	10.37
888.438	14.84
888.605	5
888.773	22.38
888.94	20.55
889.108	-4.07
889.275	-2.3
889.443	15.51
889.61	11.36
889.778	6.03
889.945	10.85
890.112	0.4
890.28	6.81
890.447	6.8
890.615	18.92
890.782	12.72
890.949	3.32
891.117	6.07
891.284	16.64
891.452	2.88
891.619	6.11
891.786	1.03
891.953	5.44
892.121	21
892.288	10.59
892.455	14.37
892.623	5.79
892.79	11.37
892.957	13.35
893.124	20.93
893.291	6.16
893.459	14.27
893.626	20.89
893.793	-4.33
893.96	21.53
894.127	15.34
894.294	19.19
894.461	10.09
894.629	9.79
894.796	-2.4
894.963	4.84
895.13	19.47
895.297	8.44
895.464	25.11
895.631	2.18
895.798	12.54
895.965	3.92
896.132	7.43
896.299	3.09
896.466	14.17
896.633	11.23
896.8	9.93
896.967	11.15
897.134	12.22
897.301	0.95
897.467	18.12
897.634	12.07
897.801	16.29
897.968	6.42
898.135	22.99
898.302	15.26
898.469	-2.66
898.635	7.77
898.802	17.54
898.969	12.04
899.136	15.48
899.303	-1.9
