Data from y0_Transmission_15-19-41-310.txt Node
Date: Thu May 02 15:19:41 EDT 2019
User: dh1006
Spectrometer: USB4E01358
Autoset integration time: false
Trigger mode: 4
Integration Time (sec): 8.000000E-2
Scans to average: 1
Electric dark correction enabled: true
Nonlinearity correction enabled: false
Boxcar width: 0
Stray light correction enabled: false
XAxis mode: Wavelengths
Stop averaging: false
Number of Pixels in Spectrum: 3648
>>>>>Begin Spectral Data<<<<<
176.727	-3.33
176.966	-3.33
177.205	-3.33
177.444	161.24
177.683	232.37
177.922	8.16
178.161	444.44
178.4	274
178.638	1275
178.877	-57.97
179.116	-233.68
179.355	-822.73
179.593	-98.8
179.832	-108.38
180.071	-11.7
180.309	-1288.89
180.548	174.12
180.786	109.66
181.025	300
181.263	-40.69
181.502	-180.67
181.74	89.64
181.979	-0.24
182.217	74.57
182.456	60.86
182.694	-16.77
182.932	5.95
183.17	25.82
183.409	-44.9
183.647	40.71
183.885	135.79
184.123	48.7
184.361	187.77
184.6	3.05
184.838	1166.67
185.076	-373.21
185.314	13.94
185.552	86.21
185.79	-13.25
186.028	60.23
186.266	10.33
186.503	64.33
186.741	146.68
186.979	-35.59
187.217	-9775
187.455	81.51
187.693	-0.27
187.93	-16.99
188.168	787.5
188.406	63.02
188.643	11.37
188.881	-340.58
189.119	53.16
189.356	-398.15
189.594	44.73
189.831	85.12
190.069	-183.39
190.306	-27.96
190.543	-3.33
190.781	56.57
191.018	12.52
191.256	640.98
191.493	-58.62
191.73	-20.05
191.967	-837.5
192.205	-102.72
192.442	-70.52
192.679	4850
192.916	-195.63
193.153	91.48
193.39	-860.71
193.628	370.91
193.865	-32.19
194.102	186.51
194.339	82.4
194.576	-42.6
194.813	-27.98
195.049	23.75
195.286	7.04
195.523	9.96
195.76	-0.29
195.997	-63.44
196.234	31.52
196.47	-17.32
196.707	47.76
196.944	-35.38
197.18	-10.67
197.417	249.22
197.654	37.03
197.89	-21.18
198.127	20.18
198.363	31.03
198.6	22.55
198.836	149.78
199.073	47.08
199.309	66.04
199.546	-10.36
199.782	11.79
200.018	40
200.255	25.19
200.491	-969.77
200.727	26.32
200.963	29.28
201.199	-233.47
201.436	387.64
201.672	-9.9
201.908	142.23
202.144	82.55
202.38	-233.68
202.616	31.28
202.852	-34.65
203.088	36.23
203.324	-220
203.56	-223.17
203.796	85.48
204.032	-9.71
204.268	1058.33
204.503	142.58
204.739	-60.69
204.975	-105.65
205.211	80.44
205.446	37.32
205.682	23.8
205.918	-1060.47
206.153	-0.12
206.389	227.78
206.625	-4.43
206.86	63.64
207.096	-187.5
207.331	12.52
207.567	-280.11
207.802	-89.12
208.037	203.91
208.273	46.61
208.508	-301.85
208.744	-76.32
208.979	3.78
209.214	-10100
209.449	4.33
209.685	-108.85
209.92	6.94
210.155	-71.43
210.39	50.99
210.625	-117.86
210.86	-93.63
211.095	261.76
211.33	-8.42
211.565	35.19
211.8	150.57
212.035	267.77
212.27	115.1
212.505	-13.48
212.74	-46.45
212.975	831.82
213.21	26.79
213.444	-8.21
213.679	-78.92
213.914	4.77
214.149	-16.34
214.383	12.92
214.618	29.17
214.853	-58.05
215.087	-126.34
215.322	62.92
215.556	-98.49
215.791	-848.84
216.025	-290.91
216.26	-51.67
216.494	493.24
216.729	-205.56
216.963	-110.14
217.197	25.22
217.432	-9.31
217.666	442.68
217.9	-8.2
218.135	5.59
218.369	2466.67
218.603	245.51
218.837	-35.23
219.071	188.28
219.306	46
219.54	60.76
219.774	99.3
220.008	113.17
220.242	-247.93
220.476	2364.71
220.71	38.55
220.944	5.77
221.178	-334.15
221.411	-278.28
221.645	-119.69
221.879	102.09
222.113	-610
222.347	14.37
222.58	-80.81
222.814	23.21
223.048	-145.37
223.281	23.62
223.515	207.96
223.749	-179.38
223.982	-139.44
224.216	846
224.449	171.71
224.683	-108.85
224.916	-470.37
225.15	-2.67
225.383	469
225.617	-33.28
225.85	29.53
226.083	17.39
226.317	110.91
226.55	-118.09
226.783	215.74
227.016	16.31
227.25	-777.14
227.483	-373.21
227.716	-20.55
227.949	-17.71
228.182	123.1
228.415	-160.76
228.648	-228.13
228.881	-56.49
229.114	-73.52
229.347	10.19
229.58	664
229.813	40
230.046	-64.39
230.279	-69.54
230.512	7.96
230.745	26.63
230.977	112.67
231.21	74.45
231.443	-183.37
231.675	65.13
231.908	-1229.41
232.141	119.9
232.373	-356.84
232.606	-80.27
232.839	-23.69
233.071	-52.44
233.304	-414.02
233.536	-137.89
233.769	-11.52
234.001	1.44
234.233	143.52
234.466	28.24
234.698	325.49
234.93	-81.03
235.163	-28.18
235.395	-123.26
235.627	-148.11
235.86	-491.3
236.092	98.73
236.324	5.81
236.556	35.75
236.788	-2.81
237.02	-66.2
237.252	36.54
237.484	43.86
237.716	-1520
237.948	145.54
238.18	95.87
238.412	156.28
238.644	173.05
238.876	-130.63
239.108	65.51
239.34	-168.85
239.571	-106.73
239.803	45.1
240.035	322.03
240.267	134.73
240.498	-3744.44
240.73	470.49
240.962	-124.62
241.193	-136.46
241.425	62.71
241.656	384.17
241.888	119.84
242.119	6.1
242.351	-879.07
242.582	-6.6
242.814	203.31
243.045	20.14
243.277	28.36
243.508	89.19
243.739	-60.69
243.971	26.75
244.202	-3.82
244.433	-105.78
244.664	-13.03
244.896	-20.89
245.127	-8.15
245.358	-907.14
245.589	-30.64
245.82	329.97
246.051	-61.43
246.282	113.29
246.513	190.45
246.744	24.24
246.975	78.05
247.206	29.7
247.437	-113.8
247.668	-638.89
247.899	21.24
248.129	153.75
248.36	-87.3
248.591	-14.8
248.822	-12.76
249.052	-126.87
249.283	46.98
249.514	59.47
249.744	-88.66
249.975	28.48
250.206	9.97
250.436	-0.3
250.667	215.83
250.897	2.47
251.128	-27.77
251.358	-33.78
251.589	177.22
251.819	-18.81
252.049	-28.52
252.28	44.73
252.51	1.95
252.74	128.38
252.971	-8800
253.201	71.93
253.431	41.45
253.661	-80.19
253.891	-382.5
254.121	32.09
254.352	-110.22
254.582	337.14
254.812	51.39
255.042	-105.03
255.272	-106.04
255.502	80.98
255.732	155.56
255.962	-83.61
256.192	27.3
256.421	-133.33
256.651	84.3
256.881	-156.44
257.111	55.51
257.341	-42.26
257.57	138.69
257.8	75.38
258.03	33.64
258.259	-12.8
258.489	7.67
258.719	-56.16
258.948	-1.88
259.178	-9.24
259.407	334.51
259.637	-55.95
259.866	-146.88
260.096	-235.68
260.325	-0.58
260.555	108.82
260.784	27.1
261.013	346.43
261.243	-43.76
261.472	914.86
261.701	-116
261.931	-74.24
262.16	153.88
262.389	-62.94
262.618	39.02
262.847	70.28
263.076	120.97
263.305	-27.56
263.535	-104.72
263.764	93.61
263.993	41.14
264.222	1.39
264.451	83.33
264.679	20.08
264.908	8.67
265.137	22.82
265.366	20.54
265.595	220.18
265.824	-14.07
266.053	18.27
266.281	-241.04
266.51	-39.85
266.739	39.31
266.967	59.57
267.196	1925
267.425	-89.34
267.653	29.58
267.882	-15.44
268.11	145.24
268.339	-58.87
268.567	-166.04
268.796	-339.08
269.024	601.79
269.253	-153.81
269.481	10.19
269.709	37.64
269.938	68.13
270.166	-4.39
270.394	43.16
270.623	78.86
270.851	49.12
271.079	2.69
271.307	22.99
271.535	198.26
271.764	-9.2
271.992	355.32
272.22	-11
272.448	-34.5
272.676	83.33
272.904	-13.79
273.132	10.41
273.36	-0.16
273.588	246.08
273.816	23.45
274.043	-99.31
274.271	-22.66
274.499	-231.56
274.727	-301.85
274.955	-44.23
275.182	-74.07
275.41	-21.51
275.638	93.5
275.866	1952.08
276.093	11.11
276.321	-300.94
276.548	55.91
276.776	28.1
277.003	12.08
277.231	485.71
277.458	-3.05
277.686	-73.75
277.913	-49.38
278.141	21.95
278.368	82.55
278.595	83.33
278.823	-413.41
279.05	145.13
279.277	-53.54
279.505	4.14
279.732	-145.42
279.959	1005.71
280.186	-22.6
280.413	-26.66
280.641	104.62
280.868	62.45
281.095	48.74
281.322	-1216.67
281.549	65.06
281.776	80.18
282.003	11.11
282.23	-22.76
282.457	-30.97
282.683	53.37
282.91	-350
283.137	25.64
283.364	418.18
283.591	-76.89
283.818	-6200
284.044	-1725.58
284.271	97.93
284.498	-21.78
284.724	16.74
284.951	-13.62
285.178	-10.67
285.404	-33.29
285.631	26.14
285.857	15.62
286.084	-61.79
286.31	-113.64
286.537	-57.27
286.763	-15.2
286.99	-31.21
287.216	1455.56
287.442	-133.33
287.669	41.59
287.895	75.86
288.121	225.18
288.347	26.89
288.574	-0.14
288.8	41.1
289.026	-162.88
289.252	-34.65
289.478	76.87
289.704	4.41
289.931	41.87
290.157	-43.76
290.383	-16.7
290.609	116.01
290.835	-10.73
291.06	-23.35
291.286	-3.67
291.512	-188.44
291.738	60.37
291.964	28.31
292.19	-136.97
292.416	-189.25
292.641	9.34
292.867	-41.77
293.093	968.57
293.319	81.56
293.544	-5.3
293.77	-35.48
293.995	36.41
294.221	-173.57
294.447	9.5
294.672	43.28
294.898	12.17
295.123	42.64
295.349	-25
295.574	-334.15
295.799	98.85
296.025	18.29
296.25	-13.98
296.476	183
296.701	-21.55
296.926	40
297.151	-108.71
297.377	671.43
297.602	-168.99
297.827	6.75
298.052	-114.38
298.277	-5.56
298.502	-22.79
298.727	61.15
298.953	-19.67
299.178	23.69
299.403	97.49
299.628	35.77
299.852	-55.04
300.077	-2758.82
300.302	14.69
300.527	-89.34
300.752	22.37
300.977	703
301.202	278.69
301.426	-116.27
301.651	-34.29
301.876	1058.33
302.101	-67.73
302.325	-15.67
302.55	51.26
302.775	-53.26
302.999	74.89
303.224	-43.06
303.448	28.11
303.673	-711.11
303.897	48.39
304.122	-51.13
304.346	-52.77
304.571	30.07
304.795	-239.46
305.019	49.5
305.244	61.99
305.468	370.27
305.692	229.09
305.917	-97.52
306.141	9.06
306.365	300
306.589	-34.29
306.813	25.64
307.038	58.57
307.262	-90.43
307.486	33.81
307.71	2575
307.934	40.95
308.158	-188.44
308.382	-43.95
308.606	-120.82
308.83	-30.2
309.054	-133.33
309.278	49.52
309.502	101.02
309.725	-38.15
309.949	-39.36
310.173	52.2
310.397	37.59
310.62	38.06
310.844	-75.45
311.068	137.5
311.292	58.88
311.515	25.86
311.739	1166.67
311.962	131.55
312.186	50.41
312.41	45.6
312.633	63.14
312.857	27.44
313.08	-157.41
313.303	21.82
313.527	-35.81
313.75	85.48
313.974	14.34
314.197	-75.45
314.42	95.84
314.644	85.94
314.867	-29.39
315.09	-79.63
315.313	24.38
315.536	-63.88
315.76	17.59
315.983	38.08
316.206	42.36
316.429	316.25
316.652	-196.89
316.875	3.1
317.098	-14.57
317.321	68.68
317.544	-252.5
317.767	48.88
317.99	-54.27
318.213	-40.6
318.436	-99.05
318.658	-14.65
318.881	-113.14
319.104	-80.71
319.327	79.36
319.55	-62.55
319.772	191.35
319.995	-566.67
320.218	42.56
320.44	289.68
320.663	-10.15
320.885	-26.65
321.108	54.31
321.331	53.23
321.553	-111.39
321.776	-9125
321.998	14.02
322.22	13.94
322.443	48.86
322.665	-46.67
322.888	27.7
323.11	101.42
323.332	41.33
323.555	185.29
323.777	-91.52
323.999	-27.26
324.221	93.61
324.443	129.66
324.666	21.56
324.888	94.57
325.11	-280.17
325.332	110.55
325.554	-92.45
325.776	71.96
325.998	-637.21
326.22	243.48
326.442	96.19
326.664	54.62
326.886	11.79
327.108	-197.59
327.33	-150.67
327.551	3.64
327.773	-10.51
327.995	-32.29
328.217	1.64
328.439	35.38
328.66	10.52
328.882	-247.93
329.104	160.71
329.325	11.54
329.547	59.4
329.769	-60.4
329.99	-27.25
330.212	1003.28
330.433	28.86
330.655	12.01
330.876	-6.63
331.098	662.3
331.319	-2.87
331.54	-16.41
331.762	-21.9
331.983	-57.63
332.204	26.01
332.426	22.79
332.647	124.72
332.868	62.71
333.089	-130.34
333.311	18.54
333.532	-17.44
333.753	-1476.67
333.974	-13.53
334.195	-0.27
334.416	19.69
334.637	-35.48
334.858	2.23
335.079	-255.92
335.3	6.75
335.521	-131.16
335.742	-95.65
335.963	-25
336.184	122.86
336.405	59.92
336.626	40.42
336.846	-78.48
337.067	114.29
337.288	54.4
337.509	-1650
337.729	59.57
337.95	-304.65
338.171	156.28
338.391	28.1
338.612	34.06
338.833	1545.83
339.053	-8.21
339.274	52.8
339.494	32.54
339.715	403.17
339.935	-25
340.156	-0.21
340.376	-67.11
340.596	59.82
340.817	-108.57
341.037	-33.23
341.257	32.84
341.478	14.32
341.698	-3.8
341.918	-179.38
342.138	-39.89
342.359	-126.34
342.579	-43.03
342.799	-271.21
343.019	92.85
343.239	3.51
343.459	-77.33
343.679	45.74
343.899	27.16
344.119	6.73
344.339	44.94
344.559	12.72
344.779	134.55
344.999	18.26
345.219	37.26
345.439	13.39
345.658	3044.44
345.878	1870.83
346.098	30.94
346.318	29.02
346.537	1186.36
346.757	252.07
346.977	46.34
347.196	67.32
347.416	26.62
347.636	-23.27
347.855	201.68
348.075	142.42
348.294	-187.5
348.514	-325.93
348.733	58.91
348.953	-356.84
349.172	-12
349.392	-58.27
349.611	-48.02
349.83	-88.59
350.05	-0.25
350.269	-27.76
350.488	15.83
350.707	494.25
350.927	13.91
351.146	30.07
351.365	-11.84
351.584	4.55
351.803	25.2
352.023	29.09
352.242	59.92
352.461	-92.89
352.68	-83.27
352.899	32.35
353.118	-193.92
353.337	48.86
353.556	-49.71
353.775	13.37
353.993	-76.14
354.212	22.85
354.431	12.36
354.65	44.7
354.869	-21.14
355.088	1.48
355.306	52.12
355.525	17.82
355.744	-8.56
355.962	6.45
356.181	370.27
356.4	-19.3
356.618	-10.73
356.837	-10.15
357.055	-16.12
357.274	65.19
357.492	-265.74
357.711	36.87
357.929	-6.64
358.148	-306.67
358.366	121.35
358.585	212.36
358.803	21.12
359.021	334.51
359.24	17.53
359.458	-84.84
359.676	-11.45
359.894	-21.89
360.113	31.65
360.331	-32.8
360.549	1340
360.767	-55.35
360.985	-369.4
361.203	17.18
361.421	32.39
361.639	16.49
361.857	58.32
362.075	-2.74
362.293	20.88
362.511	-210.13
362.729	-166.3
362.947	-53.01
363.165	-252.5
363.383	-20.8
363.601	-16.33
363.819	12.94
364.036	-73.01
364.254	45.94
364.472	47.55
364.689	94.93
364.907	-43.29
365.125	88.75
365.342	-316.18
365.56	46.17
365.778	-26.78
365.995	-187.5
366.213	-7.53
366.43	2.29
366.648	-67.88
366.865	26.62
367.083	64.48
367.3	-276.14
367.517	-44.7
367.735	-13.45
367.952	-37.42
368.17	8.72
368.387	-5.28
368.604	9.74
368.821	89.31
369.039	6.63
369.256	-8.77
369.473	-39.37
369.69	-45.91
369.907	-13025
370.124	2840.91
370.341	198.04
370.558	50.72
370.776	42.43
370.993	59.86
371.21	-154.08
371.426	14.35
371.643	-36.31
371.86	30.55
372.077	-94.48
372.294	-18.37
372.511	32.23
372.728	-43.03
372.945	38.09
373.161	-17.67
373.378	37.72
373.595	-24.33
373.811	34.31
374.028	45.81
374.245	13.59
374.461	-201.9
374.678	25.09
374.895	-88.09
375.111	85.17
375.328	38.67
375.544	1248.65
375.761	39.37
375.977	20.31
376.194	91.07
376.41	14.91
376.626	-17.58
376.843	-63.72
377.059	47.02
377.275	10.91
377.492	11.85
377.708	-14.34
377.924	-27.99
378.14	-65.15
378.357	-17.44
378.573	-189.56
378.789	1.08
379.005	19.3
379.221	-40.36
379.437	-34.92
379.653	-38.91
379.869	-34.08
380.085	-87.92
380.301	-2.33
380.517	6.3
380.733	2.97
380.949	-44.72
381.165	31.83
381.381	68.38
381.597	26.64
381.813	33.82
382.028	-27.44
382.244	13.66
382.46	-42.44
382.676	23.17
382.891	-43.24
383.107	-4.64
383.323	13.06
383.538	-63.42
383.754	-2.69
383.969	23.09
384.185	-25
384.4	0.96
384.616	-53.3
384.831	29.42
385.047	-49.86
385.262	38.14
385.478	-28.25
385.693	9.36
385.909	77.68
386.124	-2.95
386.339	-11.05
386.554	-14.62
386.77	-58.42
386.985	-61.43
387.2	36.54
387.415	-53.98
387.631	9.46
387.846	-37.14
388.061	9.51
388.276	-63.24
388.491	-27.54
388.706	-20.57
388.921	-33.04
389.136	20.93
389.351	6.16
389.566	-0.11
389.781	-26.46
389.996	40
390.211	7.01
390.426	-2.44
390.641	-3.19
390.855	-29.4
391.07	11.82
391.285	-40.25
391.5	-38.32
391.714	19.19
391.929	18.39
392.144	25.75
392.358	-43.03
392.573	-9.36
392.788	1.33
393.002	-15.21
393.217	-4.63
393.431	-22.83
393.646	2.93
393.86	-14.13
394.075	8.27
394.289	-4.87
394.504	-3.76
394.718	-2.48
394.933	1.64
395.147	7.79
395.361	16.32
395.576	-1.42
395.79	-45.99
396.004	-1.73
396.218	-25.84
396.432	-21
396.647	4.55
396.861	9.4
397.075	12.62
397.289	-0.81
397.503	-0.04
397.717	-8.04
397.931	-5.14
398.145	-23.3
398.359	-3.93
398.573	-8.72
398.787	3.4
399.001	4.53
399.215	11.75
399.429	-5.47
399.643	-4.58
399.857	-17.3
400.07	2.39
400.284	4.92
400.498	1.41
400.712	11.45
400.925	0.92
401.139	-13.27
401.353	4.22
401.566	6.95
401.78	3.08
401.994	-1.2
402.207	2.41
402.421	5.17
402.634	-12.07
402.848	5.47
403.061	-3.63
403.275	0.85
403.488	-1.91
403.702	-1.88
403.915	12.61
404.128	1.02
404.342	-3.3
404.555	-2.19
404.768	-6.13
404.982	1.67
405.195	-9.18
405.408	-1.74
405.621	4.46
405.835	2.76
406.048	-2.69
406.261	6.52
406.474	5.52
406.687	1.76
406.9	5.29
407.113	6.06
407.326	-1.74
407.539	-2.43
407.752	-0.75
407.965	0.56
408.178	0.55
408.391	3.85
408.604	-1.29
408.817	5.28
409.029	0.49
409.242	-3.31
409.455	0.77
409.668	-3.51
409.881	4.19
410.093	1.11
410.306	2.63
410.519	0.46
410.731	-1.97
410.944	-1.38
411.157	4.04
411.369	-0.99
411.582	4.78
411.794	-5.61
412.007	1
412.219	4.39
412.432	1.67
412.644	0.97
412.857	4.22
413.069	3.39
413.281	2.43
413.494	-0.61
413.706	6.4
413.918	-0.01
414.131	5.27
414.343	1.41
414.555	0.97
414.767	3.39
414.979	3.02
415.192	-1.76
415.404	-1.28
415.616	2.61
415.828	1.58
416.04	2.55
416.252	4.93
416.464	0.23
416.676	-1.37
416.888	1.23
417.1	-0.61
417.312	4.59
417.524	1.1
417.736	0.3
417.948	2.68
418.159	2.26
418.371	3.19
418.583	-1.29
418.795	2.62
419.007	3.66
419.218	1.21
419.43	0.07
419.642	-0.68
419.853	0.77
420.065	4.42
420.276	4.08
420.488	3.4
420.7	3.33
420.911	3.71
421.123	2.12
421.334	2.85
421.546	3.36
421.757	-0.34
421.969	2.4
422.18	0.47
422.391	1.9
422.603	-0
422.814	3.07
423.025	-0.9
423.237	3.6
423.448	2.25
423.659	4.89
423.87	-1.89
424.082	3.75
424.293	2.91
424.504	5.03
424.715	3.43
424.926	4.43
425.137	0.3
425.348	4.02
425.559	3.04
425.77	3.71
425.981	3.24
426.192	4.81
426.403	0.86
426.614	-1.26
426.825	5.13
427.036	2.71
427.247	4.02
427.458	3.72
427.668	2.69
427.879	3.66
428.09	2.57
428.301	1.55
428.511	2.3
428.722	3.14
428.933	2.86
429.143	3.41
429.354	4.71
429.565	2.78
429.775	1.35
429.986	3.79
430.196	2.65
430.407	4.11
430.617	0.6
430.828	2.43
431.038	3.62
431.249	2.19
431.459	3.1
431.669	2.42
431.88	4.03
432.09	3.18
432.3	4.34
432.511	5.58
432.721	4.59
432.931	3.19
433.141	2.56
433.351	4.84
433.562	6.96
433.772	3.77
433.982	3.26
434.192	5.59
434.402	4.7
434.612	4.1
434.822	5.02
435.032	5.4
435.242	4.49
435.452	5.05
435.662	6.82
435.872	6.43
436.082	5.18
436.292	6.22
436.502	6.51
436.711	4.34
436.921	6.62
437.131	6.29
437.341	3.71
437.551	7.72
437.76	8.8
437.97	7.81
438.18	7.34
438.389	10.42
438.599	7.75
438.808	7.07
439.018	8.96
439.228	8.38
439.437	4.02
439.647	7.87
439.856	8.97
440.066	7.36
440.275	8.38
440.484	11.78
440.694	7.29
440.903	11.38
441.113	9.61
441.322	11.1
441.531	8.28
441.741	9.07
441.95	11.16
442.159	10.46
442.368	11.96
442.577	10.1
442.787	9.73
442.996	13.32
443.205	10.81
443.414	13.39
443.623	14.29
443.832	12.35
444.041	14.42
444.25	13.24
444.459	15.07
444.668	13
444.877	11.15
445.086	14.21
445.295	15.51
445.504	15.72
445.713	16.24
445.922	12.66
446.13	14.45
446.339	13.22
446.548	16.34
446.757	17.31
446.965	12.53
447.174	13.76
447.383	16.91
447.591	13.22
447.8	16.72
448.009	14.53
448.217	17.47
448.426	15.27
448.634	16.97
448.843	15.8
449.051	15.94
449.26	18.63
449.468	20.88
449.677	18.33
449.885	19.2
450.093	18.02
450.302	14.52
450.51	16.5
450.719	17.38
450.927	16.47
451.135	16.19
451.343	14.24
451.552	18.72
451.76	18.82
451.968	16.75
452.176	13.76
452.384	16.45
452.592	15.35
452.8	16.89
453.009	16.6
453.217	16.57
453.425	16.28
453.633	15.82
453.841	15.29
454.049	12.98
454.257	11.53
454.464	16.12
454.672	14.01
454.88	12.85
455.088	11.49
455.296	11.91
455.504	12.65
455.711	11.87
455.919	11.23
456.127	12.04
456.335	13.39
456.542	12.32
456.75	12.1
456.958	11.15
457.165	9.23
457.373	12.18
457.581	11.42
457.788	6.28
457.996	10.1
458.203	7.91
458.411	9.27
458.618	6.13
458.826	8.79
459.033	9.87
459.24	9.31
459.448	9.1
459.655	9.79
459.863	6.67
460.07	7.86
460.277	4.67
460.484	9.64
460.692	11.16
460.899	6.06
461.106	8.56
461.313	7.58
461.52	4.28
461.728	6.86
461.935	8.33
462.142	6.32
462.349	8.11
462.556	6.37
462.763	7.74
462.97	4.62
463.177	6.98
463.384	4.74
463.591	3.46
463.798	9.1
464.005	6.45
464.212	7.37
464.418	6.84
464.625	6.32
464.832	6.8
465.039	3.9
465.246	4.55
465.452	5.13
465.659	5.53
465.866	2.88
466.072	4
466.279	4.32
466.486	5.3
466.692	5.67
466.899	2.4
467.105	2.82
467.312	5.29
467.519	5.72
467.725	3.5
467.931	3.11
468.138	3.56
468.344	2.95
468.551	2
468.757	4.1
468.964	5.69
469.17	2.93
469.376	4.38
469.583	3.76
469.789	5.45
469.995	4.87
470.201	4.73
470.408	2.25
470.614	3.62
470.82	3.04
471.026	2.46
471.232	2.82
471.438	2.45
471.644	4.77
471.85	3.19
472.056	3.31
472.262	4.2
472.468	2.83
472.674	2.53
472.88	5.61
473.086	1.96
473.292	1.58
473.498	1.79
473.704	1.08
473.91	3.26
474.116	2.68
474.321	1.34
474.527	2.12
474.733	3.04
474.939	4.69
475.144	4.28
475.35	0.91
475.556	1.31
475.761	1.73
475.967	2.78
476.173	1.78
476.378	4.04
476.584	3.33
476.789	1.84
476.995	5.14
477.2	2.1
477.406	1.38
477.611	0.82
477.817	0.11
478.022	0.31
478.227	1.17
478.433	2.74
478.638	2.27
478.843	3.02
479.049	1.77
479.254	1.52
479.459	0.89
479.664	3.05
479.87	4
480.075	3.08
480.28	2.15
480.485	2.77
480.69	3.66
480.895	0.68
481.1	1.74
481.306	2.66
481.511	1.71
481.716	1.68
481.921	1.29
482.126	2.63
482.33	2.46
482.535	1.97
482.74	1.67
482.945	1.54
483.15	0.6
483.355	2.03
483.56	0.39
483.765	0.31
483.969	1.5
484.174	2.41
484.379	1.76
484.583	1.5
484.788	1.32
484.993	1.46
485.197	2.81
485.402	1.52
485.607	2.74
485.811	1.56
486.016	2.47
486.22	2.81
486.425	3.53
486.629	2.39
486.834	0.65
487.038	1.48
487.243	1.14
487.447	1.35
487.652	1.9
487.856	2.38
488.06	1.56
488.265	2.13
488.469	1.29
488.673	2.01
488.877	1.32
489.082	1.47
489.286	1.87
489.49	1.36
489.694	0.85
489.898	2.58
490.102	1.42
490.307	1.53
490.511	1.86
490.715	2.16
490.919	1.78
491.123	1.3
491.327	2.38
491.531	1.17
491.735	0.93
491.939	0.52
492.143	1.4
492.346	0.98
492.55	1.03
492.754	1.62
492.958	2.13
493.162	1.15
493.366	0.64
493.569	2.02
493.773	1.27
493.977	1.26
494.18	1.65
494.384	1.62
494.588	1.81
494.791	0.88
494.995	0.6
495.199	1.59
495.402	1.73
495.606	0.56
495.809	2.27
496.013	0.29
496.216	1.78
496.42	0.2
496.623	1
496.827	1.27
497.03	1.5
497.233	0.68
497.437	0.61
497.64	2.11
497.843	0.17
498.047	1.45
498.25	1.79
498.453	0.94
498.656	1.66
498.86	1.65
499.063	1.28
499.266	0.56
499.469	0.98
499.672	0.94
499.875	1.48
500.078	0.16
500.281	0.95
500.484	1.25
500.687	0.64
500.89	1.22
501.093	1.06
501.296	1.58
501.499	0.25
501.702	2.27
501.905	1.48
502.108	2.08
502.311	0.9
502.514	0.57
502.716	1.23
502.919	1.84
503.122	1.11
503.325	1.61
503.527	1.34
503.73	2.23
503.933	0.52
504.135	1.84
504.338	1.15
504.541	1.32
504.743	2.07
504.946	1.81
505.148	0.94
505.351	1.21
505.553	0.4
505.756	0.95
505.958	1.39
506.161	1.69
506.363	1.49
506.565	1.38
506.768	1.3
506.97	0.82
507.172	0.43
507.375	1.27
507.577	0.84
507.779	1.9
507.982	1.61
508.184	0.73
508.386	1.15
508.588	0.77
508.79	1.39
508.993	2.06
509.195	1.29
509.397	1.61
509.599	1.02
509.801	0.01
510.003	1.54
510.205	1.17
510.407	1.76
510.609	1.46
510.811	1.47
511.013	1.51
511.215	0.77
511.417	1.11
511.618	0.67
511.82	1.18
512.022	0.96
512.224	1.22
512.426	0.67
512.627	1.31
512.829	1.09
513.031	1.43
513.233	2.01
513.434	1.53
513.636	1.43
513.838	2.09
514.039	1.61
514.241	1.05
514.442	1.56
514.644	1.24
514.845	1.28
515.047	1.41
515.248	1.36
515.45	1.47
515.651	1.03
515.853	1.49
516.054	0.87
516.256	0.76
516.457	2.34
516.658	1.55
516.86	0.66
517.061	0.83
517.262	1.41
517.463	1.38
517.665	1.68
517.866	1.88
518.067	1.76
518.268	1.66
518.469	1.17
518.67	1
518.872	0.8
519.073	1.04
519.274	1.69
519.475	1.42
519.676	1.37
519.877	1.4
520.078	1.51
520.279	1.81
520.48	1.13
520.681	1.64
520.881	1.68
521.082	1.66
521.283	1.79
521.484	1.54
521.685	1.47
521.886	1.6
522.086	1.43
522.287	1.14
522.488	1.79
522.689	1.36
522.889	1.88
523.09	0.99
523.291	1.35
523.491	1.84
523.692	1.2
523.892	1.74
524.093	1.5
524.294	1.4
524.494	1.79
524.695	1.61
524.895	1.52
525.096	1.41
525.296	1.55
525.496	1.87
525.697	1.65
525.897	1.28
526.098	1.49
526.298	1.79
526.498	1.98
526.699	1.56
526.899	1.66
527.099	1.32
527.299	1.92
527.499	1.35
527.7	1.89
527.9	1.57
528.1	1.73
528.3	2.09
528.5	2.24
528.7	1.62
528.9	1.81
529.1	1.76
529.3	1.71
529.5	1.75
529.7	1.78
529.9	1.83
530.1	1.73
530.3	1.58
530.5	1.74
530.7	2.13
530.9	2.08
531.1	1.81
531.3	1.83
531.499	1.72
531.699	1.37
531.899	1.61
532.099	1.59
532.298	1.96
532.498	1.9
532.698	2.01
532.897	1.55
533.097	1.83
533.297	1.68
533.496	1.99
533.696	1.63
533.895	1.96
534.095	1.92
534.294	1.87
534.494	1.58
534.693	1.71
534.893	1.96
535.092	1.84
535.292	2.23
535.491	1.53
535.69	1.41
535.89	1.68
536.089	2.09
536.288	1.49
536.488	1.8
536.687	2.04
536.886	1.81
537.085	2.07
537.285	1.59
537.484	2.05
537.683	1.95
537.882	1.84
538.081	2.04
538.28	1.91
538.479	2.12
538.678	2.02
538.877	1.9
539.076	1.88
539.275	2.1
539.474	1.84
539.673	1.83
539.872	1.86
540.071	2.26
540.27	2.43
540.469	2.34
540.668	1.88
540.867	2.6
541.065	2.29
541.264	2.23
541.463	1.95
541.662	1.97
541.861	2.26
542.059	2.11
542.258	2.48
542.457	2.3
542.655	2.12
542.854	2.14
543.052	2.22
543.251	2.53
543.45	2.46
543.648	2.41
543.847	2.57
544.045	1.97
544.244	2.28
544.442	2.33
544.641	2.5
544.839	2.54
545.037	2.59
545.236	2.24
545.434	2.64
545.632	2.55
545.831	2.74
546.029	2.49
546.227	2.63
546.426	2.72
546.624	2.41
546.822	2.46
547.02	2.27
547.218	2.44
547.417	2.63
547.615	2.61
547.813	2.53
548.011	2.59
548.209	2.84
548.407	3.12
548.605	2.84
548.803	2.66
549.001	2.79
549.199	2.47
549.397	2.73
549.595	2.98
549.793	2.67
549.991	2.81
550.189	3.29
550.387	2.93
550.584	3.23
550.782	2.97
550.98	3.15
551.178	3.14
551.376	2.84
551.573	2.71
551.771	3.15
551.969	2.97
552.166	2.89
552.364	2.88
552.562	2.72
552.759	3.17
552.957	2.71
553.154	3.25
553.352	2.98
553.55	2.95
553.747	3.1
553.945	3.16
554.142	3.11
554.339	3.1
554.537	2.95
554.734	2.86
554.932	3.15
555.129	3.23
555.326	3.17
555.524	3.45
555.721	3.58
555.918	3.61
556.116	3.19
556.313	3.5
556.51	3.5
556.707	3.51
556.904	3.28
557.102	3.08
557.299	3.48
557.496	3.01
557.693	3.63
557.89	3.16
558.087	3.44
558.284	3.4
558.481	3.7
558.678	3.48
558.875	3.57
559.072	3.77
559.269	3.8
559.466	3.47
559.663	3.49
559.86	3.97
560.057	3.73
560.254	3.77
560.45	3.8
560.647	3.7
560.844	3.68
561.041	4.21
561.237	4.09
561.434	4.1
561.631	4.31
561.828	4.28
562.024	4.03
562.221	3.93
562.418	4.45
562.614	4.24
562.811	4.18
563.007	4.22
563.204	4.06
563.4	4.08
563.597	4.49
563.793	4.22
563.99	4.53
564.186	4.3
564.383	4.39
564.579	4.67
564.775	4.56
564.972	4.53
565.168	4.87
565.365	4.54
565.561	4.56
565.757	4.86
565.953	5.01
566.15	5.01
566.346	4.94
566.542	4.81
566.738	5.11
566.934	5.2
567.131	5.02
567.327	5.36
567.523	5.02
567.719	5.26
567.915	5.28
568.111	5.42
568.307	5.37
568.503	5.26
568.699	5
568.895	5.56
569.091	5.43
569.287	5.31
569.483	5.23
569.679	5.41
569.875	5.44
570.07	5.3
570.266	5.54
570.462	5.76
570.658	5.58
570.854	5.58
571.049	5.75
571.245	5.83
571.441	5.8
571.636	5.86
571.832	6.09
572.028	6.23
572.223	5.93
572.419	5.65
572.615	5.85
572.81	6.08
573.006	6.06
573.201	6.28
573.397	6.51
573.592	6.56
573.788	6.22
573.983	6.35
574.179	6.54
574.374	6.69
574.569	6.84
574.765	6.5
574.96	6.52
575.156	6.57
575.351	6.61
575.546	7.02
575.741	6.88
575.937	6.74
576.132	7.22
576.327	7.14
576.522	6.93
576.718	6.72
576.913	6.94
577.108	6.9
577.303	7.45
577.498	7.21
577.693	7.2
577.888	7.51
578.083	7.74
578.278	7.55
578.473	7.74
578.668	7.64
578.863	7.72
579.058	7.78
579.253	7.58
579.448	7.88
579.643	7.61
579.838	8.33
580.033	7.96
580.227	8.15
580.422	8.36
580.617	8.02
580.812	8.27
581.006	8.14
581.201	8.53
581.396	8.45
581.591	8.37
581.785	8.56
581.98	8.81
582.175	8.77
582.369	9.5
582.564	9.18
582.758	9.7
582.953	9.28
583.147	9.15
583.342	9.23
583.536	9.11
583.731	9.29
583.925	9.89
584.12	9.82
584.314	9.57
584.509	9.7
584.703	9.5
584.897	9.9
585.092	9.79
585.286	9.95
585.48	9.32
585.674	9.86
585.869	10.39
586.063	10.19
586.257	9.93
586.451	10.23
586.646	10.3
586.84	10
587.034	9.83
587.228	10.17
587.422	10.28
587.616	10.39
587.81	10.23
588.004	10.6
588.198	10.35
588.392	10.4
588.586	11.13
588.78	11.38
588.974	11.16
589.168	11.61
589.362	11.3
589.556	11.33
589.75	11.43
589.944	11.15
590.137	11
590.331	11.51
590.525	11.42
590.719	11.32
590.913	12.06
591.106	11.86
591.3	11.7
591.494	11.93
591.687	12.37
591.881	11.99
592.075	12.22
592.268	12.29
592.462	12.11
592.655	11.57
592.849	12.05
593.043	12.25
593.236	12.29
593.43	12.08
593.623	12.51
593.817	12.35
594.01	12.55
594.203	12.5
594.397	12.88
594.59	13.29
594.784	13.05
594.977	13.35
595.17	13.59
595.364	13.52
595.557	13.41
595.75	13.41
595.943	13.53
596.137	13.68
596.33	13.55
596.523	13.59
596.716	13.5
596.909	13.7
597.102	13.67
597.296	13.88
597.489	14.07
597.682	13.76
597.875	13.91
598.068	13.67
598.261	13.48
598.454	13.6
598.647	13.39
598.84	13.64
599.033	13.75
599.226	13.85
599.419	13.8
599.611	13.99
599.804	14.13
599.997	14.28
600.19	14.53
600.383	15.07
600.576	14.93
600.768	14.77
600.961	14.76
601.154	14.72
601.347	15.05
601.539	15.07
601.732	14.88
601.925	15.3
602.117	15.05
602.31	15.52
602.502	14.88
602.695	15.14
602.888	15.22
603.08	15.58
603.273	15.35
603.465	15.89
603.658	15.76
603.85	15.78
604.043	15.24
604.235	14.87
604.427	15.48
604.62	15.64
604.812	15.52
605.004	15.23
605.197	15.87
605.389	15.54
605.581	15.47
605.774	16.06
605.966	15.9
606.158	16.02
606.35	15.83
606.543	15.86
606.735	16.23
606.927	16.32
607.119	16.5
607.311	16.38
607.503	16.72
607.695	16.44
607.887	16.76
608.079	16.87
608.271	16.63
608.463	16.33
608.655	16.92
608.847	17.11
609.039	17.02
609.231	17.16
609.423	17.03
609.615	17.6
609.807	17.15
609.999	16.94
610.191	16.67
610.382	16.52
610.574	16.58
610.766	17.18
610.958	16.8
611.15	16.9
611.341	17.13
611.533	17.08
611.725	17.27
611.916	17.16
612.108	17.08
612.3	17.32
612.491	17.05
612.683	16.96
612.874	16.88
613.066	17.48
613.257	17.46
613.449	17.12
613.64	16.8
613.832	17.65
614.023	17.02
614.215	17.45
614.406	17.97
614.598	17.53
614.789	18.62
614.98	17.85
615.172	17.33
615.363	17.68
615.554	17.45
615.746	17.61
615.937	17.78
616.128	17.36
616.319	17.82
616.511	17.64
616.702	17.93
616.893	17.99
617.084	17.99
617.275	18.01
617.466	18.29
617.658	18.53
617.849	18.54
618.04	17.68
618.231	17.46
618.422	18
618.613	17.6
618.804	18.04
618.995	17.61
619.186	17.7
619.377	17.95
619.568	17.28
619.758	17.75
619.949	17.52
620.14	17.33
620.331	17.53
620.522	17.9
620.713	17.85
620.903	17.54
621.094	17.86
621.285	17.88
621.476	17.62
621.666	17.99
621.857	17.78
622.048	18.18
622.238	18.49
622.429	18.63
622.62	18.64
622.81	18.99
623.001	19.01
623.191	18.32
623.382	18.57
623.572	18.11
623.763	18.21
623.953	18.46
624.144	17.5
624.334	18.38
624.525	18.25
624.715	18.69
624.905	18.61
625.096	18.31
625.286	17.93
625.477	18.13
625.667	18.71
625.857	18.03
626.047	18.18
626.238	18.02
626.428	17.99
626.618	18.05
626.808	18.09
626.999	18.21
627.189	18.03
627.379	17.81
627.569	17.96
627.759	18.05
627.949	18.36
628.139	18
628.329	18.19
628.519	18.39
628.709	18.35
628.899	17.97
629.089	17.64
629.279	17.96
629.469	17.61
629.659	17.97
629.849	17.5
630.039	17.69
630.229	17.81
630.419	17.33
630.609	17.61
630.798	17.68
630.988	17.56
631.178	18.12
631.368	17.74
631.557	18.07
631.747	18.15
631.937	18.2
632.127	18.47
632.316	18.4
632.506	18.52
632.696	18.63
632.885	18.88
633.075	18.71
633.264	18.39
633.454	18.35
633.643	18.38
633.833	18.25
634.022	18.22
634.212	18.13
634.401	18.07
634.591	18.39
634.78	17.59
634.97	18.69
635.159	18.23
635.348	18.45
635.538	18.45
635.727	18.41
635.916	18.34
636.106	18.24
636.295	17.95
636.484	18.14
636.674	17.64
636.863	17.75
637.052	17.48
637.241	17.6
637.43	17.48
637.619	17.38
637.809	17.77
637.998	18.24
638.187	18.49
638.376	18.29
638.565	18.85
638.754	18.55
638.943	18.09
639.132	18.04
639.321	17.82
639.51	17.23
639.699	17.05
639.888	17.28
640.077	17.3
640.266	17.48
640.455	17.4
640.643	17.42
640.832	17.18
641.021	17.28
641.21	17.33
641.399	17.21
641.587	17.81
641.776	18
641.965	17.6
642.154	18.03
642.342	17.99
642.531	17.89
642.72	17.93
642.908	18.14
643.097	17.83
643.286	17.3
643.474	17.65
643.663	17.59
643.851	17.24
644.04	17
644.228	17.37
644.417	17.65
644.605	17.84
644.794	18.03
644.982	18.09
645.171	18.26
645.359	18.15
645.547	18.51
645.736	17.66
645.924	17.51
646.112	17.05
646.301	17.32
646.489	17.4
646.677	17.06
646.866	16.92
647.054	16.98
647.242	16.86
647.43	17.74
647.618	17.86
647.807	16.97
647.995	16.94
648.183	16.8
648.371	16.89
648.559	17.15
648.747	17.18
648.935	17.77
649.123	17.46
649.311	17.8
649.499	17.46
649.687	17.22
649.875	16.94
650.063	17.3
650.251	17.14
650.439	17.36
650.627	16.71
650.815	17.55
651.003	17.07
651.191	17.16
651.378	17.01
651.566	17.02
651.754	17.02
651.942	17.16
652.13	17.15
652.317	16.74
652.505	16.87
652.693	16.94
652.88	16.55
653.068	16.17
653.256	16.98
653.443	16.79
653.631	16.92
653.819	17.32
654.006	16.71
654.194	16.75
654.381	17.49
654.569	16.77
654.756	17.38
654.944	16.93
655.131	16.76
655.319	16.85
655.506	17.14
655.693	17.51
655.881	17.32
656.068	17.03
656.256	17.53
656.443	17.05
656.63	17.5
656.818	17.25
657.005	17.15
657.192	17.55
657.379	17.29
657.567	17.3
657.754	17.56
657.941	17.22
658.128	17.47
658.315	16.67
658.502	17.19
658.69	17.08
658.877	17.42
659.064	16.88
659.251	17.36
659.438	17.24
659.625	17.11
659.812	16.96
659.999	16.42
660.186	17.2
660.373	16.64
660.56	17
660.747	17.29
660.934	17.24
661.121	17.02
661.308	17.16
661.494	16.8
661.681	16.71
661.868	17.08
662.055	17.05
662.242	17.29
662.428	17.36
662.615	17.46
662.802	17.52
662.989	17.69
663.175	17.85
663.362	17.88
663.549	17.84
663.735	18.04
663.922	16.88
664.109	17.32
664.295	17.68
664.482	17.24
664.668	17.63
664.855	17.38
665.041	16.99
665.228	16.78
665.414	17.07
665.601	17.38
665.787	16.99
665.974	17
666.16	16.59
666.347	16.54
666.533	16.57
666.719	16.93
666.906	16.63
667.092	16.89
667.278	17.33
667.465	16.91
667.651	17.6
667.837	17.36
668.023	17.61
668.21	17.41
668.396	17.76
668.582	17.56
668.768	16.82
668.954	16.61
669.14	16.95
669.327	16.83
669.513	17.81
669.699	17.8
669.885	17.6
670.071	17.88
670.257	17.53
670.443	17.59
670.629	17.46
670.815	17.62
671.001	17.2
671.187	17.29
671.373	17.57
671.559	17.48
671.744	17.9
671.93	17.29
672.116	17.43
672.302	17.62
672.488	17.27
672.674	17.85
672.859	18.05
673.045	17.69
673.231	17.72
673.417	17.56
673.602	17.26
673.788	17.32
673.974	17.44
674.159	17.32
674.345	17.22
674.531	17.27
674.716	17.13
674.902	17.42
675.087	17.94
675.273	17.79
675.459	17.82
675.644	18.16
675.83	17.66
676.015	17.38
676.2	17.31
676.386	17.29
676.571	17.4
676.757	17.19
676.942	17.82
677.128	17.18
677.313	16.75
677.498	16.61
677.684	16.63
677.869	17.21
678.054	17.8
678.24	17.75
678.425	18.33
678.61	17.73
678.795	18.75
678.98	18.25
679.166	18.09
679.351	17.55
679.536	17.27
679.721	17.4
679.906	17.47
680.091	17.33
680.276	17.28
680.461	17.09
680.647	17.28
680.832	17.77
681.017	17.35
681.202	17.57
681.387	17.68
681.572	17.68
681.756	17.71
681.941	17.45
682.126	17.44
682.311	17.11
682.496	17.19
682.681	17.34
682.866	17.73
683.051	17.66
683.235	17.67
683.42	18.09
683.605	17.96
683.79	18.83
683.974	17.76
684.159	17.58
684.344	17.77
684.529	17.23
684.713	17.71
684.898	17.09
685.083	17.3
685.267	16.97
685.452	17.38
685.636	17.39
685.821	17.67
686.005	17.28
686.19	18.15
686.375	17.85
686.559	17.65
686.744	17.38
686.928	17.3
687.112	17.36
687.297	17.27
687.481	16.75
687.666	16.92
687.85	17.37
688.034	17.03
688.219	16.84
688.403	17.16
688.587	17.2
688.772	17.29
688.956	17.04
689.14	17.35
689.324	17.2
689.509	16.78
689.693	16.61
689.877	16.91
690.061	16.83
690.245	16.55
690.43	17.05
690.614	16.73
690.798	16.71
690.982	17.03
691.166	16.99
691.35	16.97
691.534	16.86
691.718	17.04
691.902	17
692.086	17.09
692.27	16.74
692.454	17.44
692.638	17.18
692.822	17.46
693.006	16.92
693.19	17.33
693.373	16.91
693.557	17.59
693.741	16.86
693.925	16.62
694.109	16.63
694.293	16.66
694.476	17.1
694.66	17.36
694.844	17.48
695.027	17.44
695.211	17.02
695.395	17.64
695.578	17.56
695.762	17.13
695.946	17.12
696.129	16.46
696.313	16.81
696.497	16.45
696.68	16.26
696.864	16.42
697.047	16.88
697.231	16.77
697.414	16.67
697.598	15.96
697.781	16.15
697.965	16.12
698.148	15.92
698.331	16.05
698.515	15.75
698.698	15.6
698.881	16.01
699.065	16.13
699.248	16.43
699.431	16.56
699.615	16.55
699.798	15.92
699.981	16.38
700.165	16.24
700.348	16.08
700.531	16.4
700.714	16.06
700.897	15.9
701.08	15.96
701.264	16.14
701.447	16.27
701.63	15.92
701.813	16.93
701.996	16.56
702.179	16.46
702.362	16.9
702.545	16.46
702.728	16.69
702.911	17.09
703.094	16.65
703.277	16.92
703.46	17.05
703.643	16.88
703.826	16.51
704.009	16.23
704.191	16.16
704.374	15.92
704.557	16.19
704.74	15.99
704.923	16.46
705.106	15.84
705.288	16.15
705.471	15.59
705.654	16.02
705.837	16.19
706.019	15.99
706.202	16.47
706.385	16.05
706.567	15.52
706.75	16.09
706.932	15.63
707.115	15.34
707.298	15.15
707.48	15.18
707.663	15.09
707.845	15.42
708.028	15.81
708.21	15.46
708.393	15.74
708.575	15.74
708.758	15.68
708.94	16.15
709.123	16.24
709.305	16.52
709.487	16.42
709.67	16.31
709.852	15.7
710.034	15.8
710.217	15.09
710.399	15.34
710.581	15.94
710.764	15.93
710.946	15.36
711.128	15.5
711.31	15.44
711.492	16.09
711.675	15.37
711.857	15.49
712.039	15.97
712.221	15.94
712.403	15.73
712.585	14.97
712.767	15.65
712.949	15.74
713.131	15.73
713.314	16.01
713.496	15.89
713.678	15.36
713.86	16.04
714.041	15.75
714.223	15.81
714.405	15.62
714.587	15.77
714.769	14.9
714.951	14.98
715.133	15.54
715.315	15.56
715.497	15.89
715.678	15.64
715.86	15.34
716.042	15.47
716.224	15.34
716.406	15.31
716.587	15.5
716.769	15.43
716.951	15.51
717.132	15.02
717.314	15.21
717.496	15.03
717.677	15.18
717.859	14.95
718.041	14.97
718.222	14.51
718.404	14.6
718.585	14.81
718.767	14.84
718.948	14.72
719.13	14.91
719.311	14.84
719.493	14.66
719.674	15.21
719.856	14.36
720.037	14.32
720.219	14.53
720.4	14.64
720.581	14.86
720.763	14.82
720.944	14.88
721.125	14.7
721.307	14.73
721.488	14.78
721.669	14.51
721.85	14.43
722.032	14.13
722.213	14.68
722.394	14.47
722.575	14.12
722.756	14.27
722.938	14.26
723.119	14.17
723.3	14.3
723.481	14.43
723.662	14.04
723.843	13.96
724.024	13.67
724.205	13.92
724.386	14.42
724.567	13.93
724.748	14.54
724.929	14.27
725.11	14.61
725.291	14.51
725.472	14.83
725.653	15.45
725.834	14.54
726.015	14.47
726.196	14.06
726.377	14.67
726.557	14.05
726.738	14.68
726.919	14.41
727.1	14.1
727.281	14.18
727.461	14.17
727.642	14.13
727.823	13.46
728.004	14.1
728.184	14.1
728.365	14.85
728.546	14.18
728.726	13.98
728.907	14.18
729.087	13.73
729.268	13.78
729.449	13.77
729.629	14.1
729.81	13.48
729.99	13.26
730.171	13.49
730.351	13.4
730.532	13.53
730.712	13.45
730.893	13.45
731.073	13.34
731.253	13.27
731.434	13.18
731.614	13.19
731.795	13.28
731.975	13.13
732.155	14.22
732.336	13.92
732.516	13.13
732.696	13.77
732.876	13.52
733.057	13.73
733.237	13.16
733.417	13.57
733.597	13.06
733.778	13.45
733.958	13.1
734.138	13.07
734.318	13.25
734.498	13.28
734.678	12.77
734.858	13.26
735.038	13.2
735.218	13.42
735.398	13.28
735.579	13.47
735.759	13.39
735.939	12.74
736.119	13.35
736.298	13.85
736.478	13.31
736.658	12.73
736.838	13.09
737.018	13.92
737.198	13.59
737.378	13.55
737.558	13.39
737.738	13.1
737.917	13.22
738.097	13.27
738.277	13.77
738.457	13.97
738.637	13.31
738.816	12.92
738.996	13.47
739.176	12.76
739.355	12.79
739.535	13.23
739.715	12.93
739.894	13.49
740.074	12.88
740.254	12.85
740.433	12.43
740.613	12.4
740.792	12.63
740.972	13.51
741.151	12.1
741.331	12.73
741.51	13.1
741.69	12.95
741.869	13.05
742.049	12.74
742.228	13.47
742.408	12.28
742.587	12.99
742.766	12.34
742.946	13.47
743.125	13.12
743.305	13.55
743.484	12.78
743.663	12.7
743.842	12.57
744.022	12.85
744.201	12.51
744.38	12.94
744.56	12.93
744.739	12.58
744.918	12.58
745.097	12.97
745.276	12.72
745.455	12.93
745.635	12.64
745.814	12.92
745.993	12.81
746.172	12.48
746.351	12.94
746.53	13.49
746.709	13.55
746.888	12.9
747.067	13.16
747.246	12.98
747.425	13.02
747.604	12.7
747.783	12.65
747.962	12.65
748.141	13.01
748.32	12.41
748.499	12.65
748.677	12.35
748.856	11.9
749.035	12.56
749.214	12.58
749.393	12.81
749.572	12.32
749.75	12.07
749.929	12.39
750.108	12.37
750.287	12.12
750.465	12.02
750.644	11.75
750.823	11.95
751.001	11.66
751.18	12.38
751.359	12.05
751.537	12.54
751.716	11.79
751.894	11.8
752.073	11.89
752.251	11.67
752.43	11.83
752.609	12.27
752.787	11.78
752.966	11.94
753.144	11.2
753.322	11.01
753.501	11.27
753.679	11.04
753.858	11.2
754.036	10.88
754.215	11.23
754.393	10.82
754.571	11.05
754.75	11.16
754.928	11.35
755.106	11.82
755.284	11.48
755.463	11.51
755.641	12.1
755.819	11.91
755.997	11.94
756.176	11.79
756.354	12.52
756.532	11.83
756.71	12.36
756.888	11.65
757.066	12.42
757.245	11.51
757.423	11.42
757.601	11.21
757.779	10.68
757.957	11.01
758.135	11.19
758.313	11.24
758.491	11.53
758.669	11.28
758.847	10.95
759.025	11.76
759.203	10.9
759.381	11.59
759.559	10.99
759.737	11.67
759.915	10.83
760.092	11.29
760.27	10.95
760.448	10.99
760.626	10.83
760.804	11.06
760.981	10.9
761.159	11.67
761.337	11.53
761.515	11.4
761.692	10.85
761.87	11.58
762.048	10.9
762.226	10.84
762.403	11.71
762.581	11.45
762.759	11.18
762.936	11.28
763.114	11.63
763.291	11.74
763.469	11.54
763.647	11.16
763.824	11.38
764.002	11.72
764.179	10.88
764.357	11.39
764.534	11.16
764.712	10.91
764.889	10.99
765.066	11.46
765.244	10.53
765.421	10.66
765.599	10.67
765.776	10.72
765.953	10.49
766.131	11.64
766.308	11.04
766.485	11.88
766.663	11.31
766.84	11.1
767.017	11.07
767.194	10.69
767.372	10.3
767.549	11.22
767.726	10.91
767.903	10.33
768.081	10.56
768.258	9.94
768.435	10.43
768.612	10.39
768.789	11.21
768.966	10.28
769.143	10.09
769.32	11.19
769.497	10.86
769.674	10.08
769.851	10.42
770.028	10.66
770.205	11.03
770.382	10.41
770.559	10.82
770.736	10.72
770.913	11
771.09	11.35
771.267	9.24
771.444	10.54
771.621	10.57
771.798	10.02
771.975	11.66
772.151	11.26
772.328	10.54
772.505	9.91
772.682	10.34
772.859	10.93
773.035	9.93
773.212	9.23
773.389	9.37
773.565	11.19
773.742	11.08
773.919	9.95
774.096	9.33
774.272	10.54
774.449	9.78
774.625	9.6
774.802	9.5
774.979	11.34
775.155	10.88
775.332	9.58
775.508	10.72
775.685	9.82
775.861	10.82
776.038	10.74
776.214	9.5
776.391	9.56
776.567	10.66
776.744	10.89
776.92	10.12
777.096	10.1
777.273	9.5
777.449	9.97
777.626	8.55
777.802	9.52
777.978	9.67
778.155	9.74
778.331	9.42
778.507	9.81
778.683	9.28
778.86	9.65
779.036	10.17
779.212	9.8
779.388	9.42
779.565	8.84
779.741	11.16
779.917	10.56
780.093	9.09
780.269	8.8
780.445	10.2
780.621	10.18
780.797	10.66
780.974	9.8
781.15	9.48
781.326	10.91
781.502	9.4
781.678	9.49
781.854	9.98
782.03	8.17
782.206	10.44
782.382	9.53
782.558	10.95
782.733	9.27
782.909	11.17
783.085	11.22
783.261	9.74
783.437	8.19
783.613	8.85
783.789	9.78
783.965	9.94
784.14	9.21
784.316	8.39
784.492	9.8
784.668	8.28
784.843	8.98
785.019	10.52
785.195	9.23
785.371	9.33
785.546	8.18
785.722	11.27
785.898	8.82
786.073	8.54
786.249	9.31
786.424	9.79
786.6	9.69
786.776	9.61
786.951	9.73
787.127	9.91
787.302	8.53
787.478	8.49
787.653	9.44
787.829	8.88
788.004	8.19
788.18	10.25
788.355	9.37
788.531	9.26
788.706	11.18
788.881	7.93
789.057	9.78
789.232	6.68
789.408	11.6
789.583	8.82
789.758	9.39
789.934	6.97
790.109	8.4
790.284	9.54
790.459	9.39
790.635	8.26
790.81	9.27
790.985	9.79
791.16	7.27
791.336	8.54
791.511	7.23
791.686	8.47
791.861	9.28
792.036	10.81
792.211	9.74
792.387	8.77
792.562	7.76
792.737	8.62
792.912	8.47
793.087	7.62
793.262	9.12
793.437	9.55
793.612	9.14
793.787	9.46
793.962	8.19
794.137	9.39
794.312	8.94
794.487	9.57
794.662	8.43
794.837	10.77
795.011	8.21
795.186	11.04
795.361	9.34
795.536	8.6
795.711	5.89
795.886	8.63
796.06	8.92
796.235	9.98
796.41	8.68
796.585	7.65
796.76	6.98
796.934	9.8
797.109	10.23
797.284	7.75
797.458	8.75
797.633	10.94
797.808	8.94
797.982	10.91
798.157	10.02
798.332	8.14
798.506	9.69
798.681	9.61
798.855	6.62
799.03	11.02
799.204	10.01
799.379	8.15
799.553	6.98
799.728	8.03
799.902	7.32
800.077	7.79
800.251	10.84
800.426	8.16
800.6	8.71
800.775	8.09
800.949	7.82
801.123	9.97
801.298	9.21
801.472	9.47
801.647	8.14
801.821	6.4
801.995	8.88
802.169	6.72
802.344	10.1
802.518	8.14
802.692	5.65
802.867	6.67
803.041	10.01
803.215	11.15
803.389	8.96
803.563	7.21
803.737	6.93
803.912	8.39
804.086	10.45
804.26	8.67
804.434	5.9
804.608	6.26
804.782	9.21
804.956	8.67
805.13	8.22
805.304	5.98
805.478	9.56
805.652	12.38
805.826	11.34
806	8.97
806.174	12.89
806.348	7.63
806.522	7.75
806.696	7.2
806.87	7.26
807.044	9.29
807.218	8.83
807.392	11.85
807.566	7.56
807.739	10.77
807.913	9.98
808.087	9.08
808.261	7.34
808.435	6.49
808.608	4.25
808.782	6.46
808.956	5.16
809.13	3.84
809.303	10.44
809.477	9.58
809.651	10.06
809.824	7.72
809.998	9.6
810.172	10.17
810.345	10.05
810.519	7.9
810.692	8.41
810.866	8.43
811.04	8.02
811.213	7.25
811.387	9.46
811.56	8.49
811.734	9.27
811.907	10.99
812.081	8.46
812.254	8.93
812.428	10.81
812.601	9.31
812.774	9.24
812.948	7.08
813.121	9.53
813.295	6.55
813.468	10.17
813.641	3.58
813.815	8.23
813.988	7.57
814.161	4.9
814.335	10.12
814.508	11.72
814.681	7.4
814.854	5.22
815.028	8.48
815.201	11.16
815.374	7.55
815.547	7.99
815.72	6.69
815.894	10.64
816.067	7.22
816.24	8.51
816.413	10.87
816.586	8.49
816.759	10.71
816.932	6.15
817.105	8.22
817.278	9.73
817.452	6.49
817.625	7.04
817.798	8.37
817.971	6
818.144	6.88
818.317	10.73
818.49	9.25
818.662	6.98
818.835	8.55
819.008	6.39
819.181	10.72
819.354	10.37
819.527	7.76
819.7	4.54
819.873	10.02
820.046	10.02
820.218	11.36
820.391	10.46
820.564	9.89
820.737	7.3
820.909	8.91
821.082	8.85
821.255	10.3
821.428	11.57
821.6	5.8
821.773	6.32
821.946	5.31
822.118	10.17
822.291	9.05
822.464	4.03
822.636	7.27
822.809	7.85
822.982	11.58
823.154	7.81
823.327	6.95
823.499	5.64
823.672	10.33
823.844	5.52
824.017	8.18
824.189	7.59
824.362	9.05
824.534	7.04
824.707	8.5
824.879	6.14
825.052	3.62
825.224	10.19
825.396	8.86
825.569	11.81
825.741	4.55
825.914	8.04
826.086	10.3
826.258	6.93
826.431	10.35
826.603	8.82
826.775	11
826.947	7.27
827.12	11.01
827.292	14.34
827.464	4.31
827.636	8.6
827.809	8.54
827.981	9.4
828.153	9.02
828.325	7.74
828.497	9.99
828.669	8.02
828.842	2.39
829.014	7.18
829.186	6.13
829.358	10.12
829.53	9.73
829.702	9.19
829.874	8.88
830.046	11.62
830.218	11.09
830.39	3.96
830.562	11.41
830.734	9.87
830.906	7.19
831.078	5.57
831.25	10.49
831.422	4.37
831.594	8.64
831.766	7.9
831.937	4.96
832.109	10.86
832.281	6.78
832.453	7.98
832.625	10.69
832.797	10.28
832.968	6.72
833.14	5.59
833.312	6.06
833.484	7.7
833.655	11.04
833.827	9.29
833.999	4.45
834.171	8.82
834.342	9.59
834.514	8.5
834.686	8.16
834.857	5.12
835.029	5.71
835.2	13.12
835.372	8.91
835.544	8.57
835.715	8.1
835.887	10.47
836.058	5.8
836.23	11.57
836.401	8.38
836.573	8.46
836.744	7.02
836.916	6
837.087	4.42
837.259	5.36
837.43	8.44
837.602	8.29
837.773	9.35
837.945	7.25
838.116	8.56
838.287	7.61
838.459	10.53
838.63	5
838.801	11.22
838.973	6.83
839.144	8.15
839.315	8.65
839.487	8.72
839.658	10.21
839.829	8.02
840	9.49
840.172	9.07
840.343	6.39
840.514	7.87
840.685	12.45
840.856	5.29
841.027	12.06
841.199	10.95
841.37	4.32
841.541	8.12
841.712	11.53
841.883	7.35
842.054	4.39
842.225	10.56
842.396	8.86
842.567	0.78
842.738	9.84
842.909	8.81
843.08	6.36
843.251	8.89
843.422	7.2
843.593	10.7
843.764	5.92
843.935	10.02
844.106	11.14
844.277	11.79
844.448	10.16
844.619	8.72
844.79	10.15
844.96	9.91
845.131	6.53
845.302	8.31
845.473	5.3
845.644	9.17
845.814	8.92
845.985	7.61
846.156	5.73
846.327	6.25
846.497	4.01
846.668	9.4
846.839	7.94
847.01	8.61
847.18	12.56
847.351	13.47
847.522	14.42
847.692	11.47
847.863	11.65
848.033	11.18
848.204	8.88
848.375	4.56
848.545	10.19
848.716	6.76
848.886	7.03
849.057	11.72
849.227	7.74
849.398	3.69
849.568	7.74
849.739	7.63
849.909	7.12
850.08	7.96
850.25	8.64
850.421	9.61
850.591	13.75
850.761	6.29
850.932	7.3
851.102	1.95
851.272	4.42
851.443	10.26
851.613	4.84
851.783	8.28
851.954	8.27
852.124	7.75
852.294	6.46
852.465	5.57
852.635	12.41
852.805	6.74
852.975	4.02
853.145	8.41
853.316	5.36
853.486	4.27
853.656	13.62
853.826	7.3
853.996	10.52
854.166	9.01
854.337	3.33
854.507	12.39
854.677	10.09
854.847	14.44
855.017	5.91
855.187	11.32
855.357	0.71
855.527	7.19
855.697	10.9
855.867	9.21
856.037	12.12
856.207	11.29
856.377	9.21
856.547	5.46
856.717	11.08
856.887	10.67
857.057	8.65
857.227	7.47
857.397	20.63
857.566	7.05
857.736	7.84
857.906	5.81
858.076	6.74
858.246	8.99
858.416	6.19
858.585	13.9
858.755	5.57
858.925	8.16
859.095	12.57
859.264	15.11
859.434	8.28
859.604	7.35
859.774	6.23
859.943	9.4
860.113	6.5
860.283	8.67
860.452	8.83
860.622	6.84
860.791	2.91
860.961	1.1
861.131	6.01
861.3	11.09
861.47	2.84
861.639	7.32
861.809	9.95
861.978	9.37
862.148	0.91
862.318	10.78
862.487	6.13
862.657	-1.21
862.826	7.76
862.995	6.25
863.165	18.75
863.334	2.75
863.504	10.29
863.673	10.11
863.843	4.74
864.012	17.52
864.181	5.43
864.351	8.16
864.52	1.41
864.689	0.38
864.859	5.46
865.028	5.41
865.197	5.43
865.366	8.94
865.536	8.53
865.705	15.06
865.874	3.09
866.043	8.03
866.213	12.38
866.382	-0.01
866.551	-2.67
866.72	13.13
866.889	1.71
867.059	5.19
867.228	15.36
867.397	-0.71
867.566	0.62
867.735	14.16
867.904	8.25
868.073	13.61
868.242	13.58
868.411	7.23
868.58	9.05
868.749	7.64
868.918	5.93
869.087	5.12
869.256	-1.83
869.425	1.63
869.594	6.81
869.763	5.52
869.932	9.89
870.101	-5.33
870.27	1.61
870.439	9.33
870.608	6.03
870.777	9.07
870.945	0.66
871.114	15.34
871.283	10.86
871.452	5
871.621	20.74
871.789	7.81
871.958	11.14
872.127	-1.22
872.296	7.19
872.464	11.92
872.633	12.2
872.802	-0.5
872.971	12.66
873.139	0.73
873.308	8.68
873.477	14.73
873.645	-0.51
873.814	7.82
873.983	-1.56
874.151	16.56
874.32	6.35
874.488	4.95
874.657	8.45
874.826	18.15
874.994	11.7
875.163	5.1
875.331	5.5
875.5	9.6
875.668	16.25
875.837	10.17
876.005	6.96
876.174	8.12
876.342	14.04
876.51	16.56
876.679	9.32
876.847	14.02
877.016	-5.15
877.184	3.09
877.352	10.08
877.521	14.18
877.689	4.76
877.857	4.59
878.026	12.47
878.194	13
878.362	-0.29
878.531	3.4
878.699	3.74
878.867	14.06
879.036	10.27
879.204	13.32
879.372	-1.12
879.54	-0.38
879.708	11.31
879.877	17.99
880.045	13.22
880.213	12.62
880.381	13.17
880.549	20.56
880.717	2.93
880.885	11.11
881.054	1.75
881.222	10.23
881.39	10.53
881.558	11.51
881.726	-10.98
881.894	9.06
882.062	11.25
882.23	11.69
882.398	10.29
882.566	4.85
882.734	16.34
882.902	10.94
883.07	0.64
883.238	6.9
883.406	6.78
883.574	0.66
883.741	4.83
883.909	2.24
884.077	20.15
884.245	10.71
884.413	-2.39
884.581	-3.19
884.749	15.14
884.916	4.98
885.084	16.68
885.252	10.74
885.42	12.03
885.587	17.49
885.755	7.55
885.923	5.87
886.091	8.8
886.258	11.4
886.426	-2.02
886.594	-0.34
886.761	6.75
886.929	8.46
887.097	6.35
887.264	4.94
887.432	3.04
887.6	0.69
887.767	13.15
887.935	3.2
888.102	1.18
888.27	10.3
888.438	20.53
888.605	2.09
888.773	7.92
888.94	21.66
889.108	-12.05
889.275	12.76
889.443	15.75
889.61	7.52
889.778	8.95
889.945	9.96
890.112	-0.03
890.28	11.35
890.447	-0.36
890.615	7.46
890.782	4.9
890.949	0.34
891.117	-6.41
891.284	7.03
891.452	-14.53
891.619	-0.41
891.786	-2.96
891.953	7.9
892.121	11.82
892.288	2.69
892.455	11.96
892.623	5.43
892.79	9.02
892.957	10.54
893.124	22.14
893.291	-12.6
893.459	20.48
893.626	14.2
893.793	3.56
893.96	11.57
894.127	14.58
894.294	8.73
894.461	-1.57
894.629	10.13
894.796	11.48
894.963	0.4
895.13	11.56
895.297	-5.5
895.464	23.08
895.631	5.89
895.798	20.58
895.965	10.17
896.132	4.76
896.299	13.81
896.466	20.96
896.633	4.66
896.8	1.11
896.967	12.88
897.134	8.3
897.301	-4.87
897.467	6.61
897.634	3.75
897.801	11.2
897.968	-0.7
898.135	8.13
898.302	3.87
898.469	12.02
898.635	16.5
898.802	10.32
898.969	15.23
899.136	14.69
899.303	7.44
