Data from y0_Transmission_15-21-16-605.txt Node
Date: Thu May 02 15:21:16 EDT 2019
User: dh1006
Spectrometer: USB4E01358
Autoset integration time: false
Trigger mode: 4
Integration Time (sec): 8.000000E-2
Scans to average: 1
Electric dark correction enabled: true
Nonlinearity correction enabled: false
Boxcar width: 0
Stray light correction enabled: false
XAxis mode: Wavelengths
Stop averaging: false
Number of Pixels in Spectrum: 3648
>>>>>Begin Spectral Data<<<<<
176.727	80
176.966	80
177.205	80
177.444	-57.3
177.683	-106.36
177.922	119.8
178.161	395.37
178.4	-206
178.638	2875
178.877	-134.78
179.116	490.53
179.355	68.18
179.593	-202.79
179.832	75.92
180.071	189.47
180.309	2188.89
180.548	73.59
180.786	-15.58
181.025	5475
181.263	-23.1
181.502	-22.69
181.74	49.27
181.979	-124.29
182.217	-23.7
182.456	65.75
182.694	-78.8
182.932	42.86
183.17	-45.27
183.409	-310.88
183.647	99.18
183.885	463.16
184.123	-81.41
184.361	66.91
184.6	114.97
184.838	2044.44
185.076	669.64
185.314	13.73
185.552	42.86
185.79	-31.73
186.028	74.78
186.266	73.64
186.503	-38.6
186.741	-10.07
186.979	0.5
187.217	-5900
187.455	-11.76
187.693	59.51
187.93	45.27
188.168	545.83
188.406	96.7
188.643	22.74
188.881	-605.8
189.119	24.05
189.356	-375
189.594	80
189.831	202.48
190.069	36.82
190.306	31
190.543	25.43
190.781	-94.02
191.018	50.41
191.256	-337.7
191.493	-175.52
191.73	-73.1
191.967	-1164.29
192.205	-85.33
192.442	-3.69
192.679	-1350
192.916	-204.38
193.153	62.41
193.39	-700
193.628	552.73
193.865	41.03
194.102	-204.76
194.339	12.84
194.576	3.97
194.813	3.67
195.049	6.87
195.286	-0.56
195.523	113.15
195.76	109.65
195.997	82.8
196.234	-71.2
196.47	-61.94
196.707	153.73
196.944	69.78
197.18	67.63
197.417	51.56
197.654	-1.71
197.89	64.71
198.127	-50
198.363	226.44
198.6	69.53
198.836	126.22
199.073	21.66
199.309	134.3
199.546	40.77
199.782	-184.91
200.018	-1003.33
200.255	46.48
200.491	-2030.23
200.727	83.04
200.963	-19.18
201.199	-109.56
201.436	1.12
201.672	38.68
201.908	126.7
202.144	-28.73
202.38	80
202.616	-2.79
202.852	140.92
203.088	17.29
203.324	285.26
203.56	-747.56
203.796	-65.02
204.032	32.21
204.268	-131.25
204.503	97.27
204.739	-128.9
204.975	-38.82
205.211	68.44
205.446	31.75
205.682	-57.37
205.918	1083.72
206.153	1.3
206.389	141.39
206.625	98.1
206.86	88.86
207.096	104.37
207.331	115.93
207.567	201.61
207.802	113.61
208.037	-117.83
208.273	54.66
208.508	34.26
208.744	-164.04
208.979	10.15
209.214	-6875
209.449	74.37
209.685	-77.15
209.92	-46.24
210.155	75.63
210.39	-62.82
210.625	-142.86
210.86	-11.16
211.095	275
211.33	-13.52
211.565	-856.48
211.8	-356.32
212.035	52.07
212.27	42.45
212.505	148.23
212.74	75.38
212.975	2609.09
213.21	167.67
213.444	11.25
213.679	-41.26
213.914	-52.48
214.149	-69.63
214.383	28
214.618	56.17
214.853	-88.56
215.087	-105.91
215.322	11.25
215.556	-79.4
215.791	-1516.28
216.025	30.58
216.26	-127.05
216.494	459.46
216.729	142.59
216.963	6.76
217.197	34.28
217.432	1.3
217.666	60.98
217.9	18.36
218.135	1.62
218.369	1611.11
218.603	156.29
218.837	42.58
219.071	244.53
219.306	-7.28
219.54	130.56
219.774	144.37
220.008	8.38
220.242	105.79
220.476	-241.18
220.71	86.78
220.944	17.55
221.178	-557.32
221.411	-32.07
221.645	-44.88
221.879	46.37
222.113	-396.67
222.347	112.96
222.58	-60.32
222.814	37.08
223.048	275
223.281	108.66
223.515	174.34
223.749	-131.25
223.982	39.72
224.216	496
224.449	189.47
224.683	-3.69
224.916	-98.15
225.15	79.01
225.383	210
225.617	-12.74
225.85	71.28
226.083	96.96
226.317	-35.82
226.55	149.25
226.783	275
227.016	54.66
227.25	117.14
227.483	-1025
227.716	-81.8
227.949	5.38
228.182	40.51
228.415	-41.77
228.648	-261.25
228.881	34.43
229.114	-0.56
229.347	7.96
229.58	366
229.813	67.42
230.046	-40.15
230.279	-13.71
230.512	40.25
230.745	30.97
230.977	-16.15
231.21	95.63
231.443	56.58
231.675	135.71
231.908	-623.53
232.141	3.82
232.373	-946.32
232.606	-134.01
232.839	62.25
233.071	22.22
233.304	-104.17
233.536	-193.68
233.769	120.74
234.001	99.28
234.233	142.59
234.466	-40.87
234.698	153.92
234.93	-32.07
235.163	63.21
235.395	660.47
235.627	-182.95
235.86	-285.51
236.092	22.59
236.324	-59.94
236.556	18.86
236.788	90.96
237.02	-15.21
237.252	75.25
237.484	60.17
237.716	-93.33
237.948	29.37
238.18	256.2
238.412	25.13
238.644	351.17
238.876	6.87
239.108	-33.54
239.34	365.57
239.571	7.02
239.803	-93.9
240.035	212.2
240.267	109.31
240.498	-3011.11
240.73	88.52
240.962	266.83
241.193	22.74
241.425	56.47
241.656	94.96
241.888	-35.87
242.119	-14.23
242.351	-246.51
242.582	305.66
242.814	52.07
243.045	49.31
243.277	134.33
243.508	-208.11
243.739	-98.84
243.971	43.15
244.202	-15.01
244.433	-83.82
244.664	-13.17
244.896	-17.09
245.127	-35.56
245.358	42.86
245.589	6.36
245.82	300.29
246.051	-44.17
246.282	52.08
246.513	147.19
246.744	22.99
246.975	-129.27
247.206	98.02
247.437	6.76
247.668	-218.52
247.899	53.2
248.129	-98.75
248.36	74.6
248.591	11.21
248.822	12.39
249.052	124.63
249.283	-26.44
249.514	3.26
249.744	-8.45
249.975	-50
250.206	57.48
250.436	-87.54
250.667	29.5
250.897	-24.54
251.128	-1.6
251.358	108.11
251.589	159.44
251.819	24.29
252.049	36.82
252.28	-14.55
252.51	-21.46
252.74	85.15
252.971	-20525
253.201	151.46
253.431	23.23
253.661	-270.75
253.891	-1.25
254.121	26.13
254.352	-24
254.582	600
254.812	185.66
255.042	-7.54
255.272	-24.41
255.502	73.64
255.732	-1711.11
255.962	386.89
256.192	57.49
256.421	-146.53
256.651	81.17
256.881	-81.78
257.111	78.99
257.341	-15.47
257.57	133.14
257.8	9.63
258.03	-16.21
258.259	1.53
258.489	47.44
258.719	83.56
258.948	-28.19
259.178	92.61
259.407	312.39
259.637	-102.62
259.866	-196.25
260.096	-223.12
260.325	81.5
260.555	97.48
260.784	36.83
261.013	-653.57
261.243	-39.11
261.472	617.57
261.701	-87.56
261.931	142.05
262.16	45.74
262.389	78.68
262.618	-0.76
262.847	-52.61
263.076	21.61
263.305	-55.12
263.535	-68.4
263.764	-0.41
263.993	28.23
264.222	-21.35
264.451	-10.61
264.679	-5.59
264.908	24.66
265.137	49.07
265.366	53.5
265.595	60.23
265.824	37.46
266.053	42.07
266.281	-46.24
266.51	-33.5
266.739	56.33
266.967	-3.57
267.196	-1675
267.425	9.39
267.653	-30.15
267.882	16.91
268.11	383.33
268.339	-11.55
268.567	-154.25
268.796	-66.39
269.024	-3.57
269.253	-96.06
269.481	53.5
269.709	101.27
269.938	-38.6
270.166	-34.15
270.394	-20.36
270.623	15.55
270.851	67.84
271.079	-12.11
271.307	54.49
271.535	57.39
271.764	13.19
271.992	323.4
272.22	-11.12
272.448	-27.19
272.676	90.64
272.904	-108.28
273.132	25.04
273.36	36.94
273.588	246.54
273.816	42.18
274.043	-48.5
274.271	153.54
274.499	74.22
274.727	-50
274.955	186.2
275.182	15.81
275.41	-168.82
275.638	168.23
275.866	1412.5
276.093	48.83
276.321	-184.91
276.548	68.43
276.776	-6.1
277.003	80
277.231	80
277.458	-93.9
277.686	-50
277.913	55.62
278.141	34.7
278.368	35.09
278.595	-50
278.823	13.41
279.05	-108.66
279.277	-11.33
279.505	-144.14
279.732	-88.84
279.959	1342.86
280.186	5.9
280.413	51.15
280.641	-1.16
280.868	51.81
281.095	-39.08
281.322	-526.67
281.549	-18.67
281.776	42.18
282.003	39
282.23	-144.14
282.457	74.54
282.683	-0.23
282.91	-115
283.137	-42.63
283.364	2845.45
283.591	-77.31
283.818	8400
284.044	-548.84
284.271	98.19
284.498	46.53
284.724	-24.68
284.951	65.5
285.178	55.57
285.404	66.01
285.631	91.88
285.857	-99.65
286.084	-99.06
286.31	-73.64
286.537	-102.54
286.763	72.16
286.99	63.85
287.216	-122.22
287.442	-72.11
287.669	87.16
287.895	46.48
288.121	441.01
288.347	97.48
288.574	-46.45
288.8	13.35
289.026	18.94
289.252	-86.47
289.478	-1.49
289.704	-19.84
289.931	-4.9
290.157	-51.21
290.383	-26.49
290.609	48.04
290.835	18.7
291.06	-135.79
291.286	-48.29
291.512	-196.53
291.738	-112.9
291.964	12.39
292.19	42.86
292.416	-70.97
292.641	34.64
292.867	-0.49
293.093	637.14
293.319	42.35
293.544	-50
293.77	152.69
293.995	-5.07
294.221	-0.48
294.447	55.31
294.672	15.55
294.898	42.08
295.123	35.79
295.349	-66.46
295.574	441.46
295.799	32.56
296.025	-41.92
296.25	38.14
296.476	223
296.701	-15.55
296.926	49.27
297.151	-178.03
297.377	-774.29
297.602	-29.43
297.827	11.19
298.052	-9.38
298.277	63
298.502	19.98
298.727	60.89
298.953	24.59
299.178	40.59
299.403	351.76
299.628	50.41
299.852	-82.77
300.077	-4905.88
300.302	64.12
300.527	-46.7
300.752	-25.76
300.977	392
301.202	600
301.426	26.77
301.651	8.81
301.876	31.25
302.101	-187.25
302.325	-12.68
302.55	-33.57
302.775	-0.54
302.999	55.99
303.224	-36.46
303.448	-16.57
303.673	-591.67
303.897	63.67
304.122	45.15
304.346	46.48
304.571	6.15
304.795	281.63
305.019	38.54
305.244	74.83
305.468	108.11
305.692	32.73
305.917	19.83
306.141	-7.28
306.365	940.98
306.589	-152.14
306.813	-3.97
307.038	110.95
307.262	-56.44
307.486	30.48
307.71	6125
307.934	13.97
308.158	6.36
308.382	60.76
308.606	-134.43
308.83	-16.52
309.054	-376.44
309.278	61.78
309.502	22.96
309.725	-83.82
309.949	51.81
310.173	49.62
310.397	81.21
310.62	192.54
310.844	46.21
311.068	145
311.292	35.15
311.515	40.18
311.739	1195.83
311.962	-59.15
312.186	61.01
312.41	119.18
312.633	76.69
312.857	-14.02
313.08	-844.44
313.303	-19.7
313.527	2.15
313.75	29.37
313.974	-106.89
314.197	-47.65
314.42	74.6
314.644	124.9
314.867	-29.5
315.09	-31.24
315.313	-3.3
315.536	2.87
315.76	30.69
315.983	-115.48
316.206	82.36
316.429	15
316.652	-122.22
316.875	1.96
317.098	35.06
317.321	9.26
317.544	-155.63
317.767	56.42
317.99	41.57
318.213	-3.63
318.436	-91.14
318.658	-43.79
318.881	-83.05
319.104	-37.62
319.327	31.5
319.55	-104.38
319.772	11.82
319.995	426.67
320.218	-21.55
320.44	146.03
320.663	48.98
320.885	-92.89
321.108	58.85
321.331	12.33
321.553	-132.28
321.776	-6550
321.998	56.24
322.22	-28.76
322.443	-64.77
322.665	-87.56
322.888	124.21
323.11	147.42
323.332	-11.86
323.555	192.16
323.777	-19.59
323.999	-79.83
324.221	2.27
324.443	48.62
324.666	-50.9
324.888	41.48
325.11	-302.48
325.332	18.59
325.554	-19.34
325.776	7.5
325.998	418.6
326.22	-417.39
326.442	-38.98
326.664	72.69
326.886	-117.45
327.108	-58.97
327.33	-18.22
327.551	43.39
327.773	5.71
327.995	40.36
328.217	13.93
328.439	-16.26
328.66	38.8
328.882	-248.76
329.104	-142.86
329.325	30.88
329.547	32.14
329.769	123.76
329.99	-132.56
330.212	791.8
330.433	14.15
330.655	5.77
330.876	111.3
331.098	1175.41
331.319	-2.98
331.54	30.46
331.762	-6.67
331.983	38.76
332.204	-82.06
332.426	-11.76
332.647	249.44
332.868	52.42
333.089	53.1
333.311	33.97
333.532	19.1
333.753	-700
333.974	37.94
334.195	55.98
334.416	6.28
334.637	19.89
334.858	-5.21
335.079	78.29
335.3	-25.75
335.521	-85.93
335.742	-530.43
335.963	-22.71
336.184	131.64
336.405	40.67
336.626	43.45
336.846	-8.86
337.067	45.95
337.288	20.17
337.509	-1046.67
337.729	41.2
337.95	-397.67
338.171	-7.54
338.391	-0.44
338.612	10.17
338.833	220.83
339.053	27.05
339.274	-37.86
339.494	9.09
339.715	104.76
339.935	48.73
340.156	13.35
340.376	34.22
340.596	-33.49
340.817	1194.29
341.037	40.51
341.257	65.68
341.478	45.95
341.698	63.04
341.918	-66.25
342.138	19.47
342.359	194.62
342.579	-93.85
342.799	-84.47
343.019	35.61
343.239	-3.79
343.459	29.87
343.679	51.32
343.899	4.57
344.119	-0.26
344.339	15.82
344.559	65.56
344.779	-14.55
344.999	1.3
345.219	94.44
345.439	-205.25
345.658	4644.44
345.878	383.33
346.098	-71.24
346.318	6.6
346.537	-1172.73
346.757	270.51
346.977	56.75
347.196	36.84
347.416	123.97
347.636	-60.39
347.855	-66.39
348.075	-158.33
348.294	15
348.514	-146.3
348.733	16.18
348.953	-138.95
349.172	-232
349.392	13.12
349.611	-5.81
349.83	-148.91
350.05	-73.96
350.269	-53.68
350.488	5.11
350.707	-147.13
350.927	21.29
351.146	-19.77
351.365	26.99
351.584	4.17
351.803	63.09
352.023	-19.79
352.242	48.9
352.461	51.11
352.68	-99.2
352.899	-15.59
353.118	-32.22
353.337	53.41
353.556	-107.02
353.775	-29.69
353.993	-79.7
354.212	31.75
354.431	1.05
354.65	40.14
354.869	9.6
355.088	28.64
355.306	-3.18
355.525	56.84
355.744	-20.49
355.962	-105.91
356.181	1056.76
356.4	-4.39
356.618	-4.55
356.837	65.48
357.055	-57.1
357.274	57.3
357.492	-326.85
357.711	2.63
357.929	96.84
358.148	-133.78
358.366	121.05
358.585	-42.7
358.803	-116.5
359.021	312.39
359.24	6.17
359.458	-216.61
359.676	31.33
359.894	13.76
360.113	-26.15
360.331	45.83
360.549	971.43
360.767	-15.79
360.985	-1.49
361.203	-40.08
361.421	45.74
361.639	-7.13
361.857	17.06
362.075	37.77
362.293	137.35
362.511	-296.84
362.729	-78.26
362.947	-38.37
363.165	-245
363.383	8.86
363.601	50.75
363.819	-63.2
364.036	-2.55
364.254	78.68
364.472	-34.1
364.689	39.72
364.907	-30.3
365.125	161.25
365.342	-204.05
365.56	13.46
365.778	-55.33
365.995	-155.63
366.213	-266.67
366.43	34.35
366.648	10.94
366.865	22.65
367.083	66.61
367.3	-128.79
367.517	-15.53
367.735	-69.8
367.952	70.06
368.17	21.35
368.387	49.47
368.604	36.71
368.821	102.41
369.039	11.9
369.256	-11.76
369.473	39.05
369.69	52.63
369.907	-6550
370.124	1190.91
370.341	134.8
370.558	-24.54
370.776	67.85
370.993	66.61
371.21	-92.11
371.426	-117.04
371.643	14.85
371.86	35.56
372.077	-23.1
372.294	-5.23
372.511	-37.04
372.728	-0.3
372.945	-36.62
373.161	38.5
373.378	-34.8
373.595	7.63
373.811	42.52
374.028	-0.37
374.245	34.04
374.461	-17.09
374.678	72.45
374.895	-19.41
375.111	-11.44
375.328	3.15
375.544	740.54
375.761	-23.94
375.977	-2.59
376.194	26.28
376.41	-91.81
376.626	25.91
376.843	32.98
377.059	21.42
377.275	-27.9
377.492	9.09
377.708	12.39
377.924	-19.1
378.14	30.29
378.357	49.34
378.573	-78.8
378.789	17.4
379.005	33.43
379.221	-83.09
379.437	36.83
379.653	-18.31
379.869	59.6
380.085	-28.06
380.301	24.46
380.517	-3.46
380.733	49.69
380.949	10.03
381.165	53.44
381.381	86.2
381.597	8.77
381.813	10.81
382.028	3.6
382.244	5.89
382.46	-27.8
382.676	33.05
382.891	-41.71
383.107	25.41
383.323	17.34
383.538	-50.9
383.754	-27.36
383.969	44.52
384.185	21.91
384.4	3.99
384.616	-68.87
384.831	20.72
385.047	-64.21
385.262	12.9
385.478	0.92
385.693	13.97
385.909	-3.14
386.124	21.9
386.339	12.55
386.554	-14.7
386.77	-18.71
386.985	-27.95
387.2	-11.13
387.415	-56.21
387.631	10.44
387.846	23.69
388.061	2.22
388.276	-34.71
388.491	21.21
388.706	-27.49
388.921	-17.82
389.136	-6.26
389.351	43.49
389.566	-32.47
389.781	21.73
389.996	43.72
390.211	-4.83
390.426	22.05
390.641	30.99
390.855	-34.36
391.07	21.82
391.285	10.99
391.5	-33.78
391.714	14.14
391.929	33.59
392.144	10.57
392.358	-16.86
392.573	-3.51
392.788	-0.8
393.002	2.53
393.217	-3.93
393.431	-33.75
393.646	20.68
393.86	-14.79
394.075	-2.66
394.289	-1.16
394.504	-12.3
394.718	-1.05
394.933	-8.5
395.147	19.5
395.361	7.55
395.576	7.75
395.79	-13.7
396.004	1.21
396.218	-3.45
396.432	-4.5
396.647	14.92
396.861	8.08
397.075	16.8
397.289	-9.42
397.503	-11.38
397.717	13.84
397.931	7.41
398.145	-6.38
398.359	3.06
398.573	-0.07
398.787	6.04
399.001	8.36
399.215	8.36
399.429	-2
399.643	-2.98
399.857	-2.69
400.07	-8.35
400.284	-0.34
400.498	-8.32
400.712	-0.88
400.925	6.53
401.139	2.45
401.353	7.03
401.566	5.38
401.78	0.88
401.994	1.13
402.207	-0.76
402.421	6.45
402.634	-13.27
402.848	8.07
403.061	-7.74
403.275	4.1
403.488	4.38
403.702	0.66
403.915	0.84
404.128	-2.52
404.342	-5.09
404.555	-1.77
404.768	1.23
404.982	2.6
405.195	-10.23
405.408	4.78
405.621	-1.82
405.835	2.57
406.048	1.31
406.261	3.5
406.474	6.49
406.687	-3.58
406.9	5.92
407.113	0.62
407.326	5.95
407.539	-4.71
407.752	5.41
407.965	1.13
408.178	4.91
408.391	1.69
408.604	-0.31
408.817	-1.64
409.029	2.75
409.242	-1.4
409.455	-2.24
409.668	0.5
409.881	-0.6
410.093	0.72
410.306	2.28
410.519	-2.85
410.731	-1
410.944	1.01
411.157	4.36
411.369	-2.97
411.582	2.17
411.794	-0.65
412.007	0.09
412.219	4.18
412.432	5.6
412.644	4.37
412.857	1.56
413.069	3.65
413.281	4.95
413.494	5.51
413.706	0.08
413.918	3.81
414.131	1.96
414.343	-2.23
414.555	1.41
414.767	1.38
414.979	3.88
415.192	1.99
415.404	0.38
415.616	1.51
415.828	4.01
416.04	1.8
416.252	5.01
416.464	-1.37
416.676	2.96
416.888	5.09
417.1	-3.95
417.312	3.82
417.524	0.62
417.736	1.52
417.948	1.41
418.159	0.34
418.371	1.33
418.583	0.74
418.795	2.76
419.007	3.93
419.218	2.06
419.43	4.32
419.642	0.58
419.853	-0.57
420.065	2.63
420.276	1.81
420.488	3.13
420.7	1.46
420.911	4.83
421.123	3.4
421.334	2.63
421.546	2.19
421.757	1.06
421.969	2.19
422.18	1.62
422.391	1.39
422.603	2.19
422.814	3.32
423.025	0.31
423.237	6.81
423.448	1.79
423.659	7.6
423.87	-0.7
424.082	3.68
424.293	3.03
424.504	4.3
424.715	2.8
424.926	1.95
425.137	1.9
425.348	4.38
425.559	4.53
425.77	4.87
425.981	2.48
426.192	6.33
426.403	3.34
426.614	0.43
426.825	6.39
427.036	4.15
427.247	0.72
427.458	4.39
427.668	4
427.879	4.77
428.09	1.97
428.301	0.74
428.511	0.23
428.722	3.14
428.933	2.44
429.143	4.93
429.354	4.35
429.565	3.83
429.775	1.34
429.986	4.88
430.196	0.98
430.407	2.08
430.617	1.51
430.828	3.08
431.038	2.29
431.249	4.02
431.459	2.91
431.669	5.36
431.88	4.83
432.09	5.49
432.3	3.67
432.511	2.73
432.721	8.23
432.931	5
433.141	4.38
433.351	2.95
433.562	5.45
433.772	5.36
433.982	3.54
434.192	5.76
434.402	4.99
434.612	4.27
434.822	4.84
435.032	6.5
435.242	5.21
435.452	6.47
435.662	6.94
435.872	4.59
436.082	6.78
436.292	4.23
436.502	7.02
436.711	4.21
436.921	6.79
437.131	6.11
437.341	4.54
437.551	7.27
437.76	9.19
437.97	7.93
438.18	5.95
438.389	10.15
438.599	5.5
438.808	7.48
439.018	10.37
439.228	8.68
439.437	10.1
439.647	7.61
439.856	8.85
440.066	9.81
440.275	9.63
440.484	12.37
440.694	9.83
440.903	11.32
441.113	9.73
441.322	11.97
441.531	10.96
441.741	11.76
441.95	10.19
442.159	11.51
442.368	10.66
442.577	12.61
442.787	11.59
442.996	13.2
443.205	11.9
443.414	13.21
443.623	13.46
443.832	11.85
444.041	15.09
444.25	14.27
444.459	11.33
444.668	15.67
444.877	12.62
445.086	14.47
445.295	13.56
445.504	15.06
445.713	15.37
445.922	13.68
446.13	17.13
446.339	13.96
446.548	15.84
446.757	14.53
446.965	14.46
447.174	14.63
447.383	15.93
447.591	15.28
447.8	13.92
448.009	15.74
448.217	19.25
448.426	15.83
448.634	17.73
448.843	15.86
449.051	17.74
449.26	16.19
449.468	20
449.677	21.09
449.885	17.3
450.093	16.66
450.302	16.04
450.51	16.43
450.719	15.52
450.927	15.41
451.135	16.52
451.343	14.82
451.552	17.03
451.76	16.31
451.968	14.15
452.176	15.09
452.384	15.5
452.592	16.79
452.8	15.88
453.009	17.65
453.217	15.2
453.425	14.26
453.633	12.75
453.841	15.79
454.049	16.14
454.257	13.2
454.464	12.87
454.672	14.77
454.88	14.28
455.088	12.54
455.296	13.11
455.504	14.68
455.711	14.23
455.919	11.97
456.127	11.55
456.335	14.7
456.542	11.67
456.75	12.29
456.958	9.19
457.165	11.52
457.373	10.19
457.581	7.58
457.788	6.47
457.996	6.04
458.203	9.85
458.411	13.94
458.618	8.14
458.826	9.27
459.033	9.86
459.24	5.51
459.448	9.62
459.655	7.84
459.863	9.66
460.07	8.57
460.277	8.54
460.484	8.15
460.692	7.46
460.899	7.58
461.106	8.02
461.313	8.72
461.52	7.39
461.728	8.75
461.935	9.69
462.142	4.84
462.349	8.36
462.556	6.3
462.763	6.3
462.97	3.88
463.177	5.97
463.384	5.28
463.591	5.26
463.798	5.91
464.005	4.02
464.212	6.22
464.418	8.96
464.625	7.53
464.832	4.49
465.039	3.52
465.246	5.69
465.452	5.55
465.659	7.88
465.866	3.81
466.072	3.82
466.279	4.48
466.486	3.69
466.692	7.15
466.899	6.63
467.105	2.99
467.312	3.42
467.519	3.12
467.725	3.33
467.931	4.39
468.138	5.33
468.344	5.45
468.551	1.99
468.757	4.38
468.964	5.41
469.17	3.56
469.376	4.86
469.583	4.02
469.789	4.92
469.995	3.66
470.201	6.2
470.408	3.61
470.614	3.21
470.82	3.69
471.026	2.56
471.232	2.41
471.438	3.64
471.644	5.6
471.85	4.6
472.056	3.15
472.262	3.76
472.468	2.39
472.674	3.41
472.88	4.37
473.086	2.74
473.292	3.9
473.498	1.92
473.704	1.03
473.91	3.62
474.116	2.72
474.321	2.34
474.527	0.64
474.733	2.57
474.939	3.5
475.144	6.18
475.35	2.39
475.556	2.16
475.761	1.44
475.967	3.44
476.173	2.08
476.378	5.35
476.584	2.39
476.789	1.11
476.995	3.58
477.2	3.45
477.406	3.76
477.611	1.49
477.817	1.67
478.022	0.73
478.227	2.95
478.433	2.82
478.638	2.79
478.843	2.91
479.049	3.02
479.254	2.57
479.459	0.03
479.664	1.94
479.87	3.47
480.075	3.9
480.28	2.89
480.485	2.52
480.69	3.41
480.895	1.86
481.1	2.24
481.306	3.55
481.511	1.97
481.716	2.26
481.921	2.12
482.126	2.2
482.33	2.39
482.535	3.46
482.74	0.35
482.945	2.89
483.15	0.79
483.355	2.4
483.56	0.88
483.765	-0
483.969	1.34
484.174	2.84
484.379	3.02
484.583	1.34
484.788	1.41
484.993	1.91
485.197	2.89
485.402	1.19
485.607	2.65
485.811	1.85
486.016	2.09
486.22	3.56
486.425	2.9
486.629	2.16
486.834	2.09
487.038	2.28
487.243	0.57
487.447	1.29
487.652	2.23
487.856	2.35
488.06	1.04
488.265	2.04
488.469	1.37
488.673	1.56
488.877	1.72
489.082	1.52
489.286	2.1
489.49	1.04
489.694	1.9
489.898	3.52
490.102	1
490.307	1.58
490.511	1.27
490.715	1.32
490.919	1.11
491.123	0.94
491.327	2.48
491.531	0.55
491.735	2.15
491.939	0.82
492.143	0.88
492.346	1.31
492.55	2.24
492.754	0.87
492.958	1.31
493.162	1.38
493.366	1.04
493.569	1.72
493.773	1.1
493.977	0.88
494.18	1.03
494.384	0.74
494.588	2.27
494.791	0.9
494.995	2.2
495.199	1.57
495.402	2.11
495.606	2
495.809	2.2
496.013	0.38
496.216	1.96
496.42	1.43
496.623	1.13
496.827	1.25
497.03	1.26
497.233	1.53
497.437	0.35
497.64	1.86
497.843	0.34
498.047	1.73
498.25	1.39
498.453	2.49
498.656	1.66
498.86	1.18
499.063	1.24
499.266	1.34
499.469	0.56
499.672	2.22
499.875	1.87
500.078	0.25
500.281	1.55
500.484	1.49
500.687	1.15
500.89	1.15
501.093	1.5
501.296	2.52
501.499	1.27
501.702	2.64
501.905	1.47
502.108	1.84
502.311	1.01
502.514	0.82
502.716	2.3
502.919	2.14
503.122	0.32
503.325	1.96
503.527	2.14
503.73	1.59
503.933	0.63
504.135	1.32
504.338	1.92
504.541	1.65
504.743	1.8
504.946	1.99
505.148	1.01
505.351	1.43
505.553	0.81
505.756	1.82
505.958	1.27
506.161	1.67
506.363	1.54
506.565	1.5
506.768	1.31
506.97	1.24
507.172	0.72
507.375	1.58
507.577	1.08
507.779	1.78
507.982	1.94
508.184	1.78
508.386	1.66
508.588	1.26
508.79	1.31
508.993	1.72
509.195	1.11
509.397	1.71
509.599	1.05
509.801	0.67
510.003	1.44
510.205	1.68
510.407	1.78
510.609	1.75
510.811	1.66
511.013	2.07
511.215	0.86
511.417	1.28
511.618	1.31
511.82	1.44
512.022	1.69
512.224	1.83
512.426	1.54
512.627	0.63
512.829	1.56
513.031	1.94
513.233	2.18
513.434	1.45
513.636	1.12
513.838	1.85
514.039	2.07
514.241	1.1
514.442	1.46
514.644	1.4
514.845	0.85
515.047	1.58
515.248	1.97
515.45	1.53
515.651	0.83
515.853	1.42
516.054	1.52
516.256	0.55
516.457	2.44
516.658	1.38
516.86	1.15
517.061	1.11
517.262	1.67
517.463	1.9
517.665	1.83
517.866	1.85
518.067	1.86
518.268	1.63
518.469	1.15
518.67	1.43
518.872	0.69
519.073	1.41
519.274	1.9
519.475	1.69
519.676	1.07
519.877	1.79
520.078	1.56
520.279	1.78
520.48	1.53
520.681	1.38
520.881	1.6
521.082	1.67
521.283	1.98
521.484	1.56
521.685	1.35
521.886	1.77
522.086	1.73
522.287	1.83
522.488	1.39
522.689	1.58
522.889	1.94
523.09	1.15
523.291	1.42
523.491	1.85
523.692	1.42
523.892	1.74
524.093	1.82
524.294	1.59
524.494	1.51
524.695	1.41
524.895	1.76
525.096	1.59
525.296	2
525.496	2
525.697	1.61
525.897	1.54
526.098	1.75
526.298	1.96
526.498	2.31
526.699	1.54
526.899	1.62
527.099	1.85
527.299	1.93
527.499	1.66
527.7	2.09
527.9	1.78
528.1	1.98
528.3	2
528.5	2.15
528.7	1.24
528.9	1.43
529.1	2.02
529.3	1.98
529.5	1.95
529.7	1.85
529.9	1.81
530.1	1.42
530.3	1.55
530.5	1.86
530.7	2.38
530.9	2.02
531.1	1.69
531.3	2.05
531.499	1.91
531.699	1.98
531.899	1.66
532.099	1.99
532.298	2.06
532.498	1.85
532.698	1.87
532.897	1.81
533.097	1.74
533.297	1.91
533.496	2.36
533.696	1.99
533.895	1.74
534.095	2.09
534.294	1.99
534.494	1.88
534.693	1.95
534.893	2.17
535.092	1.9
535.292	1.82
535.491	1.79
535.69	1.77
535.89	1.49
536.089	2.19
536.288	1.86
536.488	2.24
536.687	1.94
536.886	2.09
537.085	2.27
537.285	2.03
537.484	1.88
537.683	2.11
537.882	2.21
538.081	1.85
538.28	2.25
538.479	2.31
538.678	1.62
538.877	2.17
539.076	1.8
539.275	1.94
539.474	2.34
539.673	2.02
539.872	1.82
540.071	2.24
540.27	2.46
540.469	2.31
540.668	2.36
540.867	2.37
541.065	2.57
541.264	2.23
541.463	2.05
541.662	2.4
541.861	2.6
542.059	2.17
542.258	2.27
542.457	2.57
542.655	2.25
542.854	2.26
543.052	2.58
543.251	2.14
543.45	2.44
543.648	2.58
543.847	2.67
544.045	2.31
544.244	2.6
544.442	2.37
544.641	2.17
544.839	2.53
545.037	3.13
545.236	2.57
545.434	2.48
545.632	2.91
545.831	2.73
546.029	2.53
546.227	2.37
546.426	2.46
546.624	2.59
546.822	2.71
547.02	2.23
547.218	2.39
547.417	2.59
547.615	2.67
547.813	2.73
548.011	2.92
548.209	3.03
548.407	2.98
548.605	3.17
548.803	2.89
549.001	3.13
549.199	2.64
549.397	2.85
549.595	3.03
549.793	3.36
549.991	2.84
550.189	3.07
550.387	3.09
550.584	3.2
550.782	2.85
550.98	3.02
551.178	3.47
551.376	2.92
551.573	3.07
551.771	2.96
551.969	3.39
552.166	2.65
552.364	2.95
552.562	3.1
552.759	3.11
552.957	3.13
553.154	3.08
553.352	3.07
553.55	3.4
553.747	3.17
553.945	3.12
554.142	3.45
554.339	3.42
554.537	3.41
554.734	3.45
554.932	3.15
555.129	3.25
555.326	3.55
555.524	3.55
555.721	3.77
555.918	3.25
556.116	3.14
556.313	4.04
556.51	3.32
556.707	3.62
556.904	3.57
557.102	3.12
557.299	3.4
557.496	3.26
557.693	3.76
557.89	3.82
558.087	3.75
558.284	3.53
558.481	3.78
558.678	3.71
558.875	3.54
559.072	3.72
559.269	3.83
559.466	3.79
559.663	3.95
559.86	3.84
560.057	4.06
560.254	3.87
560.45	3.92
560.647	3.81
560.844	3.88
561.041	4.39
561.237	3.89
561.434	4.11
561.631	4.37
561.828	4.34
562.024	4.09
562.221	3.85
562.418	4.47
562.614	4.43
562.811	4.59
563.007	4.37
563.204	4.42
563.4	4.31
563.597	4.47
563.793	4.13
563.99	4.51
564.186	4.64
564.383	4.53
564.579	4.8
564.775	4.72
564.972	4.86
565.168	4.67
565.365	5.15
565.561	5.29
565.757	4.99
565.953	4.73
566.15	5.16
566.346	4.91
566.542	5.04
566.738	5.12
566.934	5.4
567.131	4.99
567.327	5.39
567.523	5.08
567.719	5.37
567.915	5.75
568.111	5.2
568.307	5.52
568.503	5.28
568.699	5.38
568.895	5.45
569.091	5.55
569.287	5.66
569.483	5.43
569.679	5.87
569.875	5.59
570.07	5.6
570.266	5.75
570.462	5.66
570.658	5.55
570.854	5.84
571.049	5.95
571.245	5.77
571.441	5.95
571.636	5.84
571.832	6.15
572.028	6.05
572.223	6.02
572.419	6
572.615	6.11
572.81	6.18
573.006	5.95
573.201	5.99
573.397	6.47
573.592	6.53
573.788	6.32
573.983	6.37
574.179	6.7
574.374	6.78
574.569	7.02
574.765	7.03
574.96	6.44
575.156	6.78
575.351	7.02
575.546	7.18
575.741	6.66
575.937	6.91
576.132	7.28
576.327	7.13
576.522	6.9
576.718	6.99
576.913	7.25
577.108	7.12
577.303	7.94
577.498	7.12
577.693	7.47
577.888	7.5
578.083	7.61
578.278	7.97
578.473	7.72
578.668	7.7
578.863	7.87
579.058	7.67
579.253	8.08
579.448	7.52
579.643	8.2
579.838	8.03
580.033	8.03
580.227	8.17
580.422	8.45
580.617	8.34
580.812	8.41
581.006	8.22
581.201	8.69
581.396	8.32
581.591	8.35
581.785	8.89
581.98	9.03
582.175	9.11
582.369	9.51
582.564	9.39
582.758	9.94
582.953	9.46
583.147	9.39
583.342	9.29
583.536	9.41
583.731	9.59
583.925	9.72
584.12	10.07
584.314	9.88
584.509	10.25
584.703	9.67
584.897	9.78
585.092	9.94
585.286	9.86
585.48	9.7
585.674	9.95
585.869	10.18
586.063	10.23
586.257	10.36
586.451	10.41
586.646	10.43
586.84	9.81
587.034	10.04
587.228	10.3
587.422	10.4
587.616	10.42
587.81	10.4
588.004	10.9
588.198	10.37
588.392	10.56
588.586	10.88
588.78	11.12
588.974	11.02
589.168	11.54
589.362	11.51
589.556	11.8
589.75	11.31
589.944	11.18
590.137	11.64
590.331	11.89
590.525	11.7
590.719	11.56
590.913	11.94
591.106	12.16
591.3	12.32
591.494	12.41
591.687	12.21
591.881	12.12
592.075	12.35
592.268	12.24
592.462	12.33
592.655	12.36
592.849	12.25
593.043	12.66
593.236	12.89
593.43	12.47
593.623	12.49
593.817	12.42
594.01	12.59
594.203	12.68
594.397	12.87
594.59	13.49
594.784	13.7
594.977	13.61
595.17	13.78
595.364	13.15
595.557	13.39
595.75	13.64
595.943	13.85
596.137	13.91
596.33	13.57
596.523	13.59
596.716	13.21
596.909	13.97
597.102	14.07
597.296	14.16
597.489	13.9
597.682	14.08
597.875	13.77
598.068	13.75
598.261	13.56
598.454	13.77
598.647	13.92
598.84	13.84
599.033	13.9
599.226	13.81
599.419	13.86
599.611	14.33
599.804	14.41
599.997	14.6
600.19	14.66
600.383	14.8
600.576	15.32
600.768	14.46
600.961	14.36
601.154	14.69
601.347	15.33
601.539	14.9
601.732	15.11
601.925	15.26
602.117	15.37
602.31	15.26
602.502	15.42
602.695	15.44
602.888	15.29
603.08	15.07
603.273	15.16
603.465	15.67
603.658	15.75
603.85	15.61
604.043	15.78
604.235	15.16
604.427	15.71
604.62	15.32
604.812	15.42
605.004	15.61
605.197	15.94
605.389	15.75
605.581	15.53
605.774	15.75
605.966	15.82
606.158	16.08
606.35	15.79
606.543	15.96
606.735	16.21
606.927	16.02
607.119	16.36
607.311	16.46
607.503	16.56
607.695	16.15
607.887	16.58
608.079	16.74
608.271	16.63
608.463	16.58
608.655	16.86
608.847	17.18
609.039	17.34
609.231	17.26
609.423	17.11
609.615	17.17
609.807	17.15
609.999	17.27
610.191	16.83
610.382	17.26
610.574	17.17
610.766	17.32
610.958	17.37
611.15	16.9
611.341	16.99
611.533	17.08
611.725	16.99
611.916	17.58
612.108	17.28
612.3	17.55
612.491	17.11
612.683	17.01
612.874	17.6
613.066	17.24
613.257	17.79
613.449	17.3
613.64	17.01
613.832	17.29
614.023	17.44
614.215	17.19
614.406	17.77
614.598	18.08
614.789	18.16
614.98	18.03
615.172	17.64
615.363	17.73
615.554	17.55
615.746	17.43
615.937	17.18
616.128	17.99
616.319	18.1
616.511	17.76
616.702	18.28
616.893	18.31
617.084	18.04
617.275	17.88
617.466	18.25
617.658	18.38
617.849	18.24
618.04	18.02
618.231	17.5
618.422	17.57
618.613	17.96
618.804	17.45
618.995	17.43
619.186	17.61
619.377	17.33
619.568	17.8
619.758	17.34
619.949	17.25
620.14	17.25
620.331	17.29
620.522	17.92
620.713	17.83
620.903	18.02
621.094	17.6
621.285	17.88
621.476	18.01
621.666	17.52
621.857	17.39
622.048	17.72
622.238	17.74
622.429	18.44
622.62	18.51
622.81	18.71
623.001	18.7
623.191	18.6
623.382	17.91
623.572	18.08
623.763	18.06
623.953	18.01
624.144	17.91
624.334	18.46
624.525	18.2
624.715	18.73
624.905	18.66
625.096	18.45
625.286	18.15
625.477	17.99
625.667	18.68
625.857	18.23
626.047	17.89
626.238	17.92
626.428	18.05
626.618	18.13
626.808	18.25
626.999	18.3
627.189	18.1
627.379	18.07
627.569	18.18
627.759	18.15
627.949	17.86
628.139	18.01
628.329	18.57
628.519	18.39
628.709	18.35
628.899	18.3
629.089	17.69
629.279	17.65
629.469	17.92
629.659	17.77
629.849	17.41
630.039	17.54
630.229	17.6
630.419	17.18
630.609	17.69
630.798	17.99
630.988	17.32
631.178	17.66
631.368	18.04
631.557	17.96
631.747	17.98
631.937	18.06
632.127	18.5
632.316	18.48
632.506	18.68
632.696	18.67
632.885	18.76
633.075	18.71
633.264	18.52
633.454	18.48
633.643	18.43
633.833	18.05
634.022	18.35
634.212	18.48
634.401	18.41
634.591	18.23
634.78	17.91
634.97	17.96
635.159	18.43
635.348	18.37
635.538	18.53
635.727	18.47
635.916	18.59
636.106	18.82
636.295	18.71
636.484	18.47
636.674	17.93
636.863	17.68
637.052	17.23
637.241	17.81
637.43	17.48
637.619	17.55
637.809	17.87
637.998	18.09
638.187	18.15
638.376	18.25
638.565	18.98
638.754	18.11
638.943	18.33
639.132	17.87
639.321	17.8
639.51	17.06
639.699	16.83
639.888	17.17
640.077	17.54
640.266	17.24
640.455	17.6
640.643	17.02
640.832	17.02
641.021	16.82
641.21	17.32
641.399	17.31
641.587	17.67
641.776	17.46
641.965	17.95
642.154	18.48
642.342	18.48
642.531	18.1
642.72	17.92
642.908	17.37
643.097	17.86
643.286	17.63
643.474	17.55
643.663	17.54
643.851	17.53
644.04	17.41
644.228	17.72
644.417	17.79
644.605	17.96
644.794	17.71
644.982	18.16
645.171	18.34
645.359	18.12
645.547	18.36
645.736	17.91
645.924	17.47
646.112	17.66
646.301	16.76
646.489	16.83
646.677	16.53
646.866	16.69
647.054	17.14
647.242	17.19
647.43	17.39
647.618	17.5
647.807	17.38
647.995	17.21
648.183	17.03
648.371	16.51
648.559	17.04
648.747	17.37
648.935	17.31
649.123	17.53
649.311	17.64
649.499	17.62
649.687	17.33
649.875	16.97
650.063	17.45
650.251	17.31
650.439	17.25
650.627	17.49
650.815	17.43
651.003	17.23
651.191	16.76
651.378	16.89
651.566	17.4
651.754	16.91
651.942	17.47
652.13	17.04
652.317	16.95
652.505	17.42
652.693	17
652.88	17.02
653.068	16.42
653.256	16.74
653.443	16.62
653.631	16.54
653.819	16.38
654.006	16.37
654.194	16.93
654.381	17.25
654.569	16.97
654.756	17.07
654.944	17.02
655.131	17.23
655.319	17.4
655.506	16.58
655.693	17.14
655.881	17.21
656.068	17.02
656.256	17.38
656.443	16.97
656.63	17.3
656.818	17.4
657.005	17.49
657.192	17.5
657.379	17.92
657.567	17.95
657.754	17.47
657.941	17.88
658.128	17.33
658.315	17.33
658.502	17.34
658.69	17.04
658.877	17.18
659.064	16.77
659.251	17.43
659.438	17.31
659.625	17.27
659.812	16.89
659.999	16.7
660.186	17.05
660.373	16.8
660.56	17.26
660.747	17.4
660.934	17.82
661.121	17.46
661.308	17.58
661.494	17.28
661.681	17.23
661.868	17.47
662.055	17.3
662.242	17.15
662.428	17.26
662.615	17.39
662.802	17.5
662.989	17.41
663.175	18.09
663.362	18.26
663.549	17.91
663.735	17.58
663.922	16.9
664.109	17.01
664.295	17.73
664.482	17.48
664.668	16.82
664.855	17.13
665.041	16.75
665.228	17.03
665.414	17.42
665.601	17.35
665.787	17.04
665.974	16.98
666.16	16.89
666.347	16.55
666.533	16.28
666.719	16.52
666.906	16.94
667.092	16.92
667.278	17.49
667.465	17.07
667.651	17.39
667.837	17.35
668.023	17.28
668.21	17.56
668.396	17.75
668.582	17.42
668.768	17.31
668.954	16.89
669.14	17.54
669.327	17.64
669.513	18.04
669.699	17.73
669.885	17.65
670.071	18.01
670.257	17.69
670.443	17.7
670.629	17.58
670.815	17.62
671.001	17.32
671.187	17.45
671.373	17.41
671.559	17.39
671.744	17.79
671.93	17.79
672.116	17.9
672.302	17.93
672.488	17.12
672.674	18.04
672.859	18.01
673.045	17.34
673.231	17.61
673.417	17.56
673.602	17.48
673.788	17.47
673.974	17.46
674.159	17.08
674.345	17.17
674.531	17.51
674.716	16.75
674.902	17.57
675.087	17.43
675.273	17.51
675.459	18.25
675.644	17.68
675.83	17.36
676.015	17.69
676.2	17.45
676.386	17.11
676.571	17.05
676.757	17.35
676.942	16.91
677.128	17.31
677.313	17.19
677.498	16.75
677.684	16.61
677.869	17.07
678.054	18.03
678.24	17.96
678.425	17.98
678.61	18.18
678.795	17.88
678.98	18.16
679.166	17.84
679.351	17.68
679.536	17.61
679.721	17.34
679.906	17.78
680.091	17.46
680.276	17.28
680.461	17.07
680.647	17.21
680.832	17.19
681.017	17.57
681.202	17.82
681.387	17.77
681.572	17.62
681.756	17.96
681.941	17.53
682.126	17.52
682.311	17.18
682.496	17.04
682.681	17.65
682.866	17.64
683.051	17.06
683.235	17.51
683.42	18.55
683.605	17.94
683.79	17.93
683.974	17.88
684.159	16.97
684.344	17.47
684.529	17.38
684.713	17.3
684.898	17.12
685.083	17.21
685.267	16.95
685.452	17.28
685.636	17.62
685.821	17.64
686.005	17.53
686.19	17.35
686.375	17.58
686.559	17.35
686.744	17.25
686.928	17.03
687.112	16.99
687.297	17.36
687.481	16.95
687.666	17.07
687.85	17.22
688.034	17.42
688.219	17.87
688.403	16.71
688.587	17.36
688.772	16.99
688.956	16.79
689.14	17.42
689.324	17.37
689.509	17.2
689.693	17.13
689.877	16.95
690.061	17.07
690.245	16.78
690.43	16.88
690.614	17.04
690.798	16.86
690.982	16.75
691.166	16.8
691.35	16.77
691.534	17.01
691.718	16.59
691.902	17.21
692.086	16.65
692.27	16.88
692.454	16.79
692.638	17.13
692.822	17.74
693.006	17.52
693.19	17.77
693.373	17.37
693.557	17.26
693.741	17.21
693.925	16.58
694.109	16.54
694.293	16.84
694.476	16.94
694.66	17.3
694.844	17.14
695.027	17.16
695.211	17.24
695.395	17.65
695.578	17.96
695.762	16.84
695.946	17.07
696.129	16.76
696.313	16.75
696.497	16.26
696.68	16.38
696.864	16.89
697.047	16.88
697.231	16.62
697.414	16.52
697.598	15.66
697.781	15.96
697.965	15.76
698.148	16.25
698.331	15.86
698.515	15.75
698.698	15.68
698.881	16.26
699.065	16.03
699.248	16.4
699.431	16.3
699.615	16.56
699.798	16.42
699.981	16.42
700.165	16.21
700.348	15.95
700.531	16.22
700.714	16.06
700.897	15.94
701.08	15.92
701.264	15.94
701.447	15.83
701.63	16.26
701.813	16.69
701.996	16.9
702.179	16.8
702.362	16.77
702.545	16.57
702.728	16.59
702.911	16.17
703.094	17.02
703.277	16.23
703.46	16.61
703.643	16.79
703.826	15.95
704.009	16.19
704.191	16.11
704.374	15.83
704.557	16.07
704.74	16.11
704.923	16.43
705.106	15.82
705.288	15.33
705.471	15.75
705.654	16.08
705.837	16.01
706.019	15.88
706.202	16.53
706.385	16.72
706.567	16.17
706.75	15.75
706.932	15.97
707.115	15.46
707.298	15.24
707.48	15.41
707.663	15.13
707.845	15.39
708.028	15.59
708.21	15.77
708.393	15.74
708.575	15.95
708.758	15.95
708.94	15.83
709.123	16.05
709.305	16.14
709.487	16.12
709.67	16.32
709.852	16.03
710.034	15.37
710.217	15.18
710.399	15.53
710.581	15.98
710.764	15.75
710.946	15.63
711.128	15.62
711.31	15.75
711.492	16.1
711.675	15.88
711.857	15.97
712.039	15.86
712.221	15.75
712.403	15.52
712.585	15.49
712.767	15.51
712.949	15.74
713.131	15.68
713.314	15.91
713.496	15.3
713.678	15.19
713.86	15.43
714.041	15.7
714.223	15.48
714.405	15.82
714.587	15.58
714.769	15.33
714.951	15.2
715.133	15.47
715.315	15.51
715.497	15.48
715.678	15.48
715.86	15.19
716.042	15.52
716.224	14.81
716.406	15.14
716.587	15.53
716.769	15.12
716.951	15.09
717.132	15.6
717.314	15.57
717.496	14.98
717.677	15.41
717.859	15.66
718.041	15.72
718.222	14.6
718.404	14.68
718.585	14.67
718.767	14.74
718.948	15.17
719.13	14.73
719.311	15.5
719.493	15.5
719.674	14.87
719.856	14.72
720.037	14.7
720.219	14.56
720.4	15.14
720.581	14.8
720.763	15.01
720.944	14.77
721.125	14.35
721.307	14.42
721.488	14.98
721.669	14.37
721.85	14.46
722.032	14.65
722.213	14.99
722.394	15
722.575	13.92
722.756	14.31
722.938	14.17
723.119	13.84
723.3	14.26
723.481	14.15
723.662	13.96
723.843	13.91
724.024	13.73
724.205	13.78
724.386	13.91
724.567	13.87
724.748	13.87
724.929	14.27
725.11	14.5
725.291	15.15
725.472	14.54
725.653	15.27
725.834	14.34
726.015	14.28
726.196	14.56
726.377	14.91
726.557	14.89
726.738	14.4
726.919	14.2
727.1	14.09
727.281	14.07
727.461	13.72
727.642	14.21
727.823	14.17
728.004	13.65
728.184	14
728.365	13.98
728.546	13.67
728.726	14.06
728.907	14.09
729.087	13.76
729.268	13.31
729.449	13.83
729.629	13.28
729.81	13.98
729.99	13.62
730.171	13.03
730.351	13.45
730.532	13.47
730.712	13.43
730.893	13.64
731.073	13.37
731.253	13.19
731.434	12.8
731.614	13.31
731.795	13.44
731.975	13.61
732.155	13.28
732.336	13.4
732.516	13.44
732.696	13.81
732.876	14.01
733.057	13.54
733.237	13.3
733.417	13.27
733.597	13.07
733.778	13.45
733.958	13.32
734.138	13.54
734.318	12.87
734.498	13.22
734.678	12.27
734.858	13.3
735.038	13.02
735.218	13.41
735.398	13.2
735.579	13.32
735.759	13.17
735.939	13.73
736.119	13.69
736.298	13.87
736.478	13.2
736.658	13.21
736.838	13.81
737.018	13.37
737.198	13.24
737.378	13.45
737.558	13.48
737.738	13.11
737.917	13.73
738.097	13.66
738.277	13.45
738.457	13.09
738.637	13.2
738.816	13.22
738.996	13.44
739.176	13.14
739.355	12.96
739.535	13.11
739.715	12.88
739.894	12.62
740.074	12.82
740.254	12.98
740.433	12.34
740.613	12.12
740.792	12.57
740.972	12.69
741.151	12.37
741.331	13
741.51	12.41
741.69	12.38
741.869	13.02
742.049	12.7
742.228	13.05
742.408	12.66
742.587	12.64
742.766	12.94
742.946	13.04
743.125	12.93
743.305	12.71
743.484	12.47
743.663	13.38
743.842	13.09
744.022	12.2
744.201	12.51
744.38	12.85
744.56	12.9
744.739	12.69
744.918	13.19
745.097	12.66
745.276	12.86
745.455	12.22
745.635	12.88
745.814	12.38
745.993	13.56
746.172	12.69
746.351	12.99
746.53	13.27
746.709	12.96
746.888	13.12
747.067	13.23
747.246	13.37
747.425	12.54
747.604	13.26
747.783	12.98
747.962	12.48
748.141	12.93
748.32	12.59
748.499	13.09
748.677	12.1
748.856	12.76
749.035	12.87
749.214	13.02
749.393	12.95
749.572	12.25
749.75	12.49
749.929	12.51
750.108	12.8
750.287	12.7
750.465	12.21
750.644	11.8
750.823	12.13
751.001	11.43
751.18	12.89
751.359	12.37
751.537	12.26
751.716	12.21
751.894	12.04
752.073	12.38
752.251	11.85
752.43	11.93
752.609	12.39
752.787	12.3
752.966	11.43
753.144	12.05
753.322	11.07
753.501	10.99
753.679	11.55
753.858	11.55
754.036	10.99
754.215	11.21
754.393	10.86
754.571	10.38
754.75	11.1
754.928	10.49
755.106	11.54
755.284	11.72
755.463	11.99
755.641	11.59
755.819	11.68
755.997	11.79
756.176	11.67
756.354	11.34
756.532	12.3
756.71	11.91
756.888	11.78
757.066	12.13
757.245	11.98
757.423	11.44
757.601	11.18
757.779	10.5
757.957	11.23
758.135	11.36
758.313	11.28
758.491	11.19
758.669	11.64
758.847	11.56
759.025	11.13
759.203	11.49
759.381	11.33
759.559	11.13
759.737	11.3
759.915	11.78
760.092	11.02
760.27	11.02
760.448	11.38
760.626	10.88
760.804	11.31
760.981	11.81
761.159	11.24
761.337	12.04
761.515	11.83
761.692	11.35
761.87	11.31
762.048	11.25
762.226	10.89
762.403	10.84
762.581	10.46
762.759	11.42
762.936	10.95
763.114	11.81
763.291	11.38
763.469	11.55
763.647	11.09
763.824	10.6
764.002	11.37
764.179	11.97
764.357	10.96
764.534	11.37
764.712	11.01
764.889	11.24
765.066	11.42
765.244	10.49
765.421	10.75
765.599	10.61
765.776	11.45
765.953	10.8
766.131	11.74
766.308	10.5
766.485	11.06
766.663	11.13
766.84	10.64
767.017	10.92
767.194	10.6
767.372	10.8
767.549	10.82
767.726	11.41
767.903	11.28
768.081	9.74
768.258	11.21
768.435	10.47
768.612	10.82
768.789	10.78
768.966	9.9
769.143	10.79
769.32	10.64
769.497	10.41
769.674	10.5
769.851	10.52
770.028	9.77
770.205	10.83
770.382	10.35
770.559	9.67
770.736	10.55
770.913	10.79
771.09	11.48
771.267	9.59
771.444	10.83
771.621	11.22
771.798	10.12
771.975	11.32
772.151	11.4
772.328	10.54
772.505	9.81
772.682	10.43
772.859	9.84
773.035	10.69
773.212	9.82
773.389	10.31
773.565	11.34
773.742	10.65
773.919	10
774.096	9.92
774.272	10.1
774.449	9.39
774.625	9.75
774.802	9.91
774.979	10.69
775.155	9.21
775.332	10.65
775.508	11.54
775.685	10.09
775.861	11.62
776.038	10.65
776.214	10.97
776.391	10.12
776.567	10.82
776.744	10.68
776.92	9.97
777.096	10.1
777.273	9.62
777.449	11.9
777.626	9.81
777.802	10.4
777.978	10.53
778.155	10.01
778.331	9.64
778.507	10.74
778.683	9.44
778.86	10.48
779.036	10.39
779.212	9.98
779.388	10.13
779.565	9.3
779.741	12.01
779.917	9.82
780.093	9.47
780.269	8.91
780.445	10.5
780.621	10.51
780.797	10.11
780.974	9.76
781.15	9.48
781.326	10.45
781.502	9.58
781.678	9
781.854	9.98
782.03	8.1
782.206	9.84
782.382	9.89
782.558	9.81
782.733	8.93
782.909	9.88
783.085	10.03
783.261	9.79
783.437	8.16
783.613	9.13
783.789	9.97
783.965	9.26
784.14	10.36
784.316	8.46
784.492	9.44
784.668	9.61
784.843	9.04
785.019	10.01
785.195	9.12
785.371	9.48
785.546	9.83
785.722	10.16
785.898	10.18
786.073	8.84
786.249	9.71
786.424	10.58
786.6	9.57
786.776	8.79
786.951	9.76
787.127	11.64
787.302	8.91
787.478	8.71
787.653	8.88
787.829	7.41
788.004	9.11
788.18	10.51
788.355	8.67
788.531	9.08
788.706	11.21
788.881	8.03
789.057	10.74
789.232	8.41
789.408	10.36
789.583	9.69
789.758	10.12
789.934	7.93
790.109	9.14
790.284	8.71
790.459	9.43
790.635	8.85
790.81	9.04
790.985	9.12
791.16	8.75
791.336	7.35
791.511	7.66
791.686	7.92
791.861	8.87
792.036	11.13
792.211	9.34
792.387	8.77
792.562	7.75
792.737	9.28
792.912	8.83
793.087	9.05
793.262	9.73
793.437	9.3
793.612	8.8
793.787	9.46
793.962	7.62
794.137	10.47
794.312	9.3
794.487	9.33
794.662	9.23
794.837	9.53
795.011	7.93
795.186	9.98
795.361	8.39
795.536	8.55
795.711	7.46
795.886	8.87
796.06	8.17
796.235	7.77
796.41	8.72
796.585	8.65
796.76	7.55
796.934	7.84
797.109	12.37
797.284	8.21
797.458	9.95
797.633	10.98
797.808	8.94
797.982	9.87
798.157	10.07
798.332	8.98
798.506	8.32
798.681	9.29
798.855	7.79
799.03	10.08
799.204	10.72
799.379	7.67
799.553	7.33
799.728	6.8
799.902	6.78
800.077	12.55
800.251	8.98
800.426	8.09
800.6	9.61
800.775	9.91
800.949	7.75
801.123	8.95
801.298	8.81
801.472	8.64
801.647	8.39
801.821	7.75
801.995	9.72
802.169	9.18
802.344	8.05
802.518	10.5
802.692	6.3
802.867	10.66
803.041	10.63
803.215	9.01
803.389	10.55
803.563	9.97
803.737	6.08
803.912	9.14
804.086	9.68
804.26	9.07
804.434	8.1
804.608	8.03
804.782	9.55
804.956	11.39
805.13	10.43
805.304	6.12
805.478	8.08
805.652	11.12
805.826	8.99
806	10.63
806.174	9.34
806.348	8.3
806.522	9.19
806.696	9.93
806.87	9.9
807.044	8.28
807.218	11.88
807.392	10.87
807.566	7.16
807.739	8.71
807.913	8.7
808.087	10.22
808.261	10.25
808.435	9.51
808.608	5.93
808.782	7.48
808.956	7.21
809.13	7.52
809.303	11.21
809.477	8.61
809.651	8.11
809.824	8.76
809.998	10.49
810.172	10.31
810.345	8.18
810.519	6.26
810.692	9.56
810.866	7.01
811.04	5.12
811.213	8.92
811.387	8.01
811.56	7.97
811.734	8.08
811.907	9.28
812.081	8.88
812.254	6.95
812.428	6.84
812.601	7.44
812.774	9.74
812.948	8.06
813.121	10.72
813.295	12.15
813.468	9.91
813.641	3.13
813.815	9.95
813.988	12.11
814.161	5.8
814.335	14.42
814.508	6.61
814.681	6.77
814.854	8.04
815.028	7.3
815.201	9.76
815.374	9
815.547	6.84
815.72	8.97
815.894	9.76
816.067	9.54
816.24	9.56
816.413	8.14
816.586	8.75
816.759	9.77
816.932	8.78
817.105	11.82
817.278	8.58
817.452	9.07
817.625	9.15
817.798	9.66
817.971	6.42
818.144	9.58
818.317	14.35
818.49	6.76
818.662	6.46
818.835	9.91
819.008	6.04
819.181	8.25
819.354	10.87
819.527	13.39
819.7	5.34
819.873	8.8
820.046	8.88
820.218	11.36
820.391	10.94
820.564	10.31
820.737	6.31
820.909	11.79
821.082	5.45
821.255	9.58
821.428	13.04
821.6	7.08
821.773	10.09
821.946	8.53
822.118	9.21
822.291	9.75
822.464	7.52
822.636	8.51
822.809	7.58
822.982	12
823.154	12.18
823.327	7.87
823.499	5.72
823.672	7.51
823.844	9.51
824.017	11.8
824.189	7.59
824.362	10.75
824.534	12.46
824.707	8.49
824.879	3.8
825.052	8.34
825.224	9.09
825.396	10.74
825.569	8.06
825.741	10.13
825.914	9.33
826.086	9.26
826.258	6.3
826.431	9.43
826.603	9.39
826.775	6.81
826.947	8.58
827.12	13.31
827.292	12.85
827.464	6.07
827.636	10.22
827.809	6.84
827.981	7.92
828.153	8.5
828.325	10.11
828.497	10.68
828.669	9.51
828.842	6.8
829.014	5.19
829.186	6.3
829.358	7.15
829.53	11.2
829.702	9.74
829.874	8.06
830.046	12.05
830.218	12.79
830.39	7.18
830.562	11.41
830.734	9.33
830.906	7.82
831.078	4.74
831.25	8.63
831.422	6.95
831.594	8.9
831.766	10.7
831.937	7.84
832.109	10.5
832.281	12.62
832.453	9.01
832.625	10.86
832.797	8.08
832.968	8.02
833.14	8.25
833.312	10.38
833.484	11.46
833.655	9.2
833.827	8.63
833.999	10.85
834.171	9.1
834.342	15.06
834.514	9.73
834.686	12.51
834.857	8.98
835.029	5.61
835.2	12.67
835.372	6.49
835.544	10.04
835.715	6.43
835.887	8.52
836.058	5.97
836.23	8.15
836.401	9.19
836.573	7.26
836.744	1.95
836.916	2.89
837.087	6.08
837.259	9.88
837.43	5.95
837.602	12.88
837.773	6.95
837.945	6.03
838.116	4.17
838.287	3.89
838.459	11.2
838.63	3.62
838.801	13.38
838.973	7.7
839.144	11.35
839.315	5.89
839.487	6.68
839.658	7.86
839.829	9.27
840	12.82
840.172	7.41
840.343	5.84
840.514	9.98
840.685	13.74
840.856	14.32
841.027	8.24
841.199	13.81
841.37	6.65
841.541	10.37
841.712	11.41
841.883	10.12
842.054	12.61
842.225	10.78
842.396	6.07
842.567	2.68
842.738	10.47
842.909	9.84
843.08	8.28
843.251	8.99
843.422	11.17
843.593	13.63
843.764	7.86
843.935	9.69
844.106	6.29
844.277	11.36
844.448	11.93
844.619	14.76
844.79	8.13
844.96	8.03
845.131	10.51
845.302	7.97
845.473	8.64
845.644	12.71
845.814	7.11
845.985	3.85
846.156	8.81
846.327	1.67
846.497	11.8
846.668	7.1
846.839	7.7
847.01	11.19
847.18	9.61
847.351	7.01
847.522	7.14
847.692	10.13
847.863	7.84
848.033	9.17
848.204	6.15
848.375	10.65
848.545	8.95
848.716	9.31
848.886	10.6
849.057	9.07
849.227	8.31
849.398	7.75
849.568	6.86
849.739	9.67
849.909	8.96
850.08	13.45
850.25	5.91
850.421	6.43
850.591	11.37
850.761	3.43
850.932	3.44
851.102	2.46
851.272	7.96
851.443	9.84
851.613	13.7
851.783	9.07
851.954	3.91
852.124	5.99
852.294	3.08
852.465	5.16
852.635	12.26
852.805	4.84
852.975	8.03
853.145	4.81
853.316	11.73
853.486	7.69
853.656	13.75
853.826	9.73
853.996	9.95
854.166	12.47
854.337	10.41
854.507	6.47
854.677	7.33
854.847	11.18
855.017	2.29
855.187	9.67
855.357	6.32
855.527	6.19
855.697	6.46
855.867	6.46
856.037	10.46
856.207	10.61
856.377	7.83
856.547	15.68
856.717	14.3
856.887	10.38
857.057	5.89
857.227	8.34
857.397	13.46
857.566	15.96
857.736	3.82
857.906	5.8
858.076	7.63
858.246	9.28
858.416	7.52
858.585	6.53
858.755	8.09
858.925	5.26
859.095	18.07
859.264	17.11
859.434	7.51
859.604	9.52
859.774	5.88
859.943	9.38
860.113	3.32
860.283	6.72
860.452	9.49
860.622	10.98
860.791	10.04
860.961	9.97
861.131	10.86
861.3	10.25
861.47	7.83
861.639	-1.17
861.809	10.45
861.978	6.97
862.148	2.55
862.318	4.04
862.487	9.69
862.657	1.52
862.826	7.57
862.995	6.08
863.165	16.46
863.334	5.3
863.504	9.91
863.673	10.27
863.843	5.48
864.012	18.77
864.181	4.86
864.351	7
864.52	2.2
864.689	6.06
864.859	4.63
865.028	10.22
865.197	6.55
865.366	13.31
865.536	14.87
865.705	18.53
865.874	0.7
866.043	14.58
866.213	12.93
866.382	5.07
866.551	6.38
866.72	15.82
866.889	4.57
867.059	-4.37
867.228	5.65
867.397	2.5
867.566	0.39
867.735	12.51
867.904	10.03
868.073	10.64
868.242	18.76
868.411	5.08
868.58	10.45
868.749	5.59
868.918	-0.69
869.087	7.47
869.256	7.44
869.425	14.8
869.594	4.79
869.763	4.48
869.932	13.42
870.101	1.81
870.27	10.42
870.439	1.39
870.608	10.76
870.777	7.54
870.945	15.46
871.114	16.41
871.283	10.35
871.452	9.17
871.621	6.81
871.789	8.01
871.958	1.9
872.127	1.88
872.296	7.89
872.464	9.69
872.633	11.2
872.802	7.74
872.971	11.79
873.139	4.44
873.308	6.55
873.477	8.33
873.645	9.76
873.814	6.79
873.983	-9.85
874.151	10.24
874.32	6.84
874.488	4.23
874.657	6.19
874.826	17
874.994	24.06
875.163	0.73
875.331	5.48
875.5	12.87
875.668	13.13
875.837	15.37
876.005	1.21
876.174	9.19
876.342	11.31
876.51	12.51
876.679	16.36
876.847	7.83
877.016	-8.41
877.184	11.28
877.352	1.92
877.521	11.18
877.689	2.98
877.857	9.46
878.026	6.06
878.194	12.98
878.362	8.58
878.531	-2.23
878.699	1.4
878.867	3.41
879.036	6.73
879.204	8.76
879.372	9.02
879.54	2.4
879.708	16.7
879.877	19.49
880.045	11.99
880.213	8.8
880.381	14.27
880.549	16.75
880.717	6.46
880.885	9.07
881.054	8.53
881.222	4.43
881.39	14.52
881.558	7.94
881.726	-7.14
881.894	17.24
882.062	11.22
882.23	14.79
882.398	9.62
882.566	4.22
882.734	14.27
882.902	-0.36
883.07	2.29
883.238	5.37
883.406	3.97
883.574	-3.12
883.741	12.8
883.909	4.48
884.077	22.11
884.245	13.94
884.413	-5.45
884.581	1.7
884.749	9.84
884.916	8.81
885.084	13.59
885.252	15.32
885.42	9.59
885.587	20.91
885.755	19.93
885.923	4.92
886.091	12.87
886.258	10.5
886.426	7.58
886.594	-0.98
886.761	11.46
886.929	3.09
887.097	11.83
887.264	13.1
887.432	19.38
887.6	13.14
887.767	11.29
887.935	14.13
888.102	-3.28
888.27	5.94
888.438	25.91
888.605	2.42
888.773	19.62
888.94	18.12
889.108	2.95
889.275	7.68
889.443	11.4
889.61	6.86
889.778	12.52
889.945	-0.06
890.112	5.2
890.28	2.1
890.447	26.61
890.615	13.29
890.782	8.74
890.949	6.85
891.117	-1.56
891.284	2.42
891.452	-1.27
891.619	8.64
891.786	6.48
891.953	12.64
892.121	9.97
892.288	3.69
892.455	16.27
892.623	20.34
892.79	13.51
892.957	15.63
893.124	19.22
893.291	-12.99
893.459	9.21
893.626	19.13
893.793	2.74
893.96	-0.05
894.127	4.03
894.294	11.63
894.461	-6.23
894.629	1.26
894.796	6.51
894.963	14.26
895.13	14.98
895.297	-4.07
895.464	27.93
895.631	-8.53
895.798	20.24
895.965	2.41
896.132	5.47
896.299	4
896.466	7.54
896.633	11.12
896.8	-5
896.967	15.86
897.134	1.55
897.301	0.37
897.467	6.58
897.634	14.36
897.801	4.1
897.968	18.05
898.135	11.6
898.302	1.24
898.469	-11.33
898.635	15.37
898.802	15.64
898.969	19.2
899.136	17.12
899.303	7.41
