Data from transSpec_Transmission_00001.txt Node
Date: Fri May 03 15:21:16 EDT 2019
User: dh1006
Spectrometer: USB4E01358
Autoset integration time: false
Trigger mode: 4
Integration Time (sec): 6.500000E-1
Scans to average: 10
Electric dark correction enabled: true
Nonlinearity correction enabled: false
Boxcar width: 0
Stray light correction enabled: false
XAxis mode: Wavelengths
Stop averaging: false
Number of Pixels in Spectrum: 3648
>>>>>Begin Spectral Data<<<<<
176.727	-9600
176.966	-9600
177.205	-9600
177.444	80.43
177.683	7.45
177.922	45.48
178.161	1431.43
178.4	-368.35
178.638	96.11
178.877	55.99
179.116	45.9
179.355	28.93
179.593	112.57
179.832	-116.32
180.071	246.3
180.309	134.79
180.548	-0.29
180.786	106.86
181.025	69.12
181.263	92.43
181.502	56.51
181.74	73.19
181.979	39.89
182.217	72.35
182.456	93.26
182.694	50.4
182.932	87.16
183.17	69.06
183.409	110.29
183.647	1.58
183.885	22.25
184.123	80.46
184.361	61.91
184.6	36.81
184.838	-10.14
185.076	64.4
185.314	40.02
185.552	130.4
185.79	138.44
186.028	80.45
186.266	24.78
186.503	50.19
186.741	78.1
186.979	76.93
187.217	34.19
187.455	99.59
187.693	215.6
187.93	85.57
188.168	87.67
188.406	67.15
188.643	85.14
188.881	55.08
189.119	106.13
189.356	48.32
189.594	94.31
189.831	62.9
190.069	69.98
190.306	64.3
190.543	76.19
190.781	37.22
191.018	50.71
191.256	52.62
191.493	44.3
191.73	82.08
191.967	63.13
192.205	36
192.442	18.89
192.679	69.25
192.916	122.41
193.153	129.79
193.39	58.44
193.628	31.93
193.865	11.14
194.102	28.16
194.339	57.65
194.576	123.85
194.813	65.3
195.049	10.32
195.286	18.03
195.523	84
195.76	65.27
195.997	147.53
196.234	66.3
196.47	53.39
196.707	105.71
196.944	44.73
197.18	155.71
197.417	30.9
197.654	49.88
197.89	59.98
198.127	29.1
198.363	68.72
198.6	107.77
198.836	84.72
199.073	55.63
199.309	105.08
199.546	278.24
199.782	133.79
200.018	48.75
200.255	105.86
200.491	32.32
200.727	134.53
200.963	-1.68
201.199	128.69
201.436	22.79
201.672	59.77
201.908	47.21
202.144	90.34
202.38	41.08
202.616	70.8
202.852	105.04
203.088	44.42
203.324	93.62
203.56	72.21
203.796	99.47
204.032	160.3
204.268	64.01
204.503	17.24
204.739	112.02
204.975	79.41
205.211	42.7
205.446	87.19
205.682	62.13
205.918	29.66
206.153	59.88
206.389	42.13
206.625	130.86
206.86	93.58
207.096	97.88
207.331	51.61
207.567	66.49
207.802	69.6
208.037	43.81
208.273	89.28
208.508	96
208.744	128.09
208.979	83.32
209.214	50.61
209.449	59.98
209.685	87.34
209.92	115.95
210.155	42.66
210.39	81.84
210.625	50.49
210.86	51.79
211.095	76.07
211.33	8.43
211.565	87.33
211.8	186.98
212.035	57.89
212.27	101.5
212.505	44.99
212.74	101.85
212.975	7.33
213.21	73.73
213.444	136.89
213.679	59.55
213.914	60.4
214.149	91.13
214.383	48.09
214.618	79.75
214.853	60.6
215.087	94.78
215.322	70.73
215.556	64.84
215.791	44.36
216.025	-8.59
216.26	87.78
216.494	70.01
216.729	52.77
216.963	58.36
217.197	92.24
217.432	97.53
217.666	25.64
217.9	70.96
218.135	65.37
218.369	69.07
218.603	49.32
218.837	35.77
219.071	47.31
219.306	70.52
219.54	54.11
219.774	79.02
220.008	38.7
220.242	37.46
220.476	92.25
220.71	69.63
220.944	127.99
221.178	54.89
221.411	79.32
221.645	98.52
221.879	35.96
222.113	61.87
222.347	69.44
222.58	51.52
222.814	82.61
223.048	55.66
223.281	85.87
223.515	33.04
223.749	91.43
223.982	49.88
224.216	79.57
224.449	54.67
224.683	63.67
224.916	84.66
225.15	110.39
225.383	65.14
225.617	102.7
225.85	99.47
226.083	127.91
226.317	27.68
226.55	74.71
226.783	70.49
227.016	57
227.25	95.67
227.483	69.28
227.716	45.88
227.949	-8.42
228.182	8.43
228.415	6.88
228.648	66.29
228.881	89.86
229.114	6.27
229.347	58.2
229.58	48.58
229.813	36.41
230.046	49.37
230.279	61.94
230.512	93.89
230.745	54.24
230.977	103.41
231.21	49.65
231.443	69.79
231.675	64.92
231.908	94.02
232.141	75.44
232.373	26.77
232.606	38.18
232.839	56.31
233.071	61.2
233.304	73.68
233.536	54.35
233.769	62.08
234.001	282.95
234.233	88.29
234.466	78.38
234.698	21.18
234.93	105.41
235.163	41.85
235.395	102.34
235.627	39.3
235.86	84.75
236.092	96.56
236.324	96.3
236.556	126.6
236.788	61.3
237.02	81.01
237.252	114.17
237.484	65.16
237.716	31.7
237.948	84.14
238.18	60.73
238.412	41.16
238.644	49.02
238.876	48.84
239.108	83.06
239.34	71.97
239.571	117.5
239.803	82.42
240.035	79.11
240.267	54.79
240.498	39.13
240.73	94.4
240.962	63.86
241.193	44.01
241.425	108.62
241.656	-4.92
241.888	52.84
242.119	86.47
242.351	23.1
242.582	67.28
242.814	55.73
243.045	42.91
243.277	90.29
243.508	25.35
243.739	76.32
243.971	94.05
244.202	48.84
244.433	25.7
244.664	67.45
244.896	35.87
245.127	54.41
245.358	59.54
245.589	49.76
245.82	85.33
246.051	25.34
246.282	59.77
246.513	88.74
246.744	93.7
246.975	51.92
247.206	104.08
247.437	72.81
247.668	110.39
247.899	54.37
248.129	136.15
248.36	66.41
248.591	34.97
248.822	34.18
249.052	43.74
249.283	62.77
249.514	55.57
249.744	38.77
249.975	53.77
250.206	93.03
250.436	59.35
250.667	230.6
250.897	99.56
251.128	8.2
251.358	74.56
251.589	55.32
251.819	109.11
252.049	33.04
252.28	90.91
252.51	31.82
252.74	97.52
252.971	29.73
253.201	93.5
253.431	84.29
253.661	63.77
253.891	43.29
254.121	87.08
254.352	43.34
254.582	14.9
254.812	47.19
255.042	89.24
255.272	93.2
255.502	82.24
255.732	48.37
255.962	65.09
256.192	53.38
256.421	74.61
256.651	71.34
256.881	35.12
257.111	80.95
257.341	24.14
257.57	58.29
257.8	92.06
258.03	75.91
258.259	140.94
258.489	88.08
258.719	48.5
258.948	60.37
259.178	59.19
259.407	56.04
259.637	60.29
259.866	16.69
260.096	36.15
260.325	84.55
260.555	53.47
260.784	40.51
261.013	79.69
261.243	55.95
261.472	42.53
261.701	28.32
261.931	78.89
262.16	59.64
262.389	79.92
262.618	57.01
262.847	54.14
263.076	45.27
263.305	78.46
263.535	59.25
263.764	90.83
263.993	43.4
264.222	50.45
264.451	39.62
264.679	65.74
264.908	58.11
265.137	69.3
265.366	18.24
265.595	61.63
265.824	38.82
266.053	33.88
266.281	52.77
266.51	55.71
266.739	47.58
266.967	73.4
267.196	108.93
267.425	65.99
267.653	58.93
267.882	78.19
268.11	47.43
268.339	133.45
268.567	65.83
268.796	70.52
269.024	103.31
269.253	64.5
269.481	64.7
269.709	33.33
269.938	84.18
270.166	73.72
270.394	40.84
270.623	87.86
270.851	80.21
271.079	71.29
271.307	113.06
271.535	51.03
271.764	78.55
271.992	84.46
272.22	54.29
272.448	45.51
272.676	70.01
272.904	85.8
273.132	60.37
273.36	51.33
273.588	71.27
273.816	38.15
274.043	73.3
274.271	90.61
274.499	42.61
274.727	69.64
274.955	63.49
275.182	35.2
275.41	56.55
275.638	58.25
275.866	41.19
276.093	69.79
276.321	81.99
276.548	72.81
276.776	67.65
277.003	69.75
277.231	76.31
277.458	33.86
277.686	113.6
277.913	56.68
278.141	91.09
278.368	93
278.595	35.72
278.823	70.72
279.05	79.93
279.277	94.07
279.505	97.52
279.732	41.92
279.959	108.08
280.186	77.73
280.413	52.02
280.641	71.35
280.868	53.03
281.095	65.69
281.322	60.19
281.549	76.14
281.776	30.88
282.003	19.57
282.23	85.62
282.457	35.32
282.683	71.01
282.91	131.53
283.137	50.05
283.364	76.1
283.591	8.71
283.818	60.35
284.044	107.64
284.271	75.09
284.498	60.62
284.724	58.76
284.951	57.48
285.178	71.29
285.404	45.92
285.631	84.94
285.857	44.85
286.084	35.7
286.31	45.57
286.537	69.55
286.763	56.58
286.99	68.36
287.216	74.59
287.442	41.08
287.669	38.15
287.895	29.1
288.121	92.3
288.347	44.89
288.574	78.69
288.8	100.49
289.026	74.29
289.252	50.5
289.478	48.14
289.704	44.39
289.931	72.03
290.157	3.8
290.383	62.32
290.609	44.66
290.835	76.21
291.06	53.9
291.286	49.68
291.512	69.33
291.738	82.46
291.964	96.08
292.19	68.23
292.416	53.07
292.641	48.66
292.867	72.38
293.093	53.19
293.319	56.44
293.544	64.04
293.77	65.22
293.995	72.01
294.221	68.48
294.447	51.52
294.672	34.4
294.898	59.63
295.123	53.58
295.349	85.38
295.574	32.52
295.799	51.88
296.025	34.09
296.25	54.58
296.476	116.8
296.701	70.19
296.926	67.74
297.151	71.57
297.377	77.43
297.602	79.1
297.827	42.62
298.052	59.52
298.277	77.36
298.502	138.19
298.727	58.07
298.953	48.96
299.178	57.08
299.403	62.22
299.628	52.52
299.852	41.77
300.077	60.62
300.302	105.07
300.527	62.8
300.752	53.69
300.977	69.1
301.202	61.21
301.426	87.36
301.651	65.52
301.876	85.78
302.101	53.58
302.325	70.03
302.55	64.06
302.775	78.48
302.999	69.75
303.224	58.99
303.448	57.17
303.673	94.68
303.897	63.67
304.122	59.29
304.346	58.61
304.571	79.75
304.795	75.06
305.019	76.34
305.244	39.89
305.468	96.16
305.692	26.28
305.917	71.44
306.141	42.8
306.365	71.67
306.589	116.33
306.813	43.57
307.038	66.15
307.262	64.03
307.486	82.84
307.71	73.27
307.934	60.63
308.158	80.66
308.382	48.88
308.606	57.96
308.83	40.12
309.054	70.54
309.278	23.56
309.502	76.25
309.725	37.7
309.949	71.82
310.173	67.38
310.397	44.97
310.62	86.42
310.844	43.82
311.068	65.62
311.292	92.87
311.515	65.07
311.739	53.63
311.962	82.57
312.186	46.15
312.41	77.22
312.633	45.93
312.857	91.42
313.08	99.24
313.303	88.5
313.527	88.59
313.75	80.4
313.974	66.19
314.197	98.39
314.42	73.18
314.644	48.7
314.867	76.65
315.09	70.79
315.313	59.86
315.536	76.89
315.76	55.3
315.983	69.25
316.206	72.04
316.429	46.92
316.652	56.89
316.875	65.57
317.098	63.54
317.321	78.6
317.544	59.81
317.767	40.89
317.99	92.02
318.213	55.63
318.436	72
318.658	133.62
318.881	56.1
319.104	93.76
319.327	32.86
319.55	59.88
319.772	46.36
319.995	52.09
320.218	56.55
320.44	59.96
320.663	42.33
320.885	58.56
321.108	53.25
321.331	33.52
321.553	22.66
321.776	57.42
321.998	54.42
322.22	51.18
322.443	44.38
322.665	41.88
322.888	70.47
323.11	74.09
323.332	94.61
323.555	77.41
323.777	56.07
323.999	93.72
324.221	53.36
324.443	65.42
324.666	47.27
324.888	88.85
325.11	55.13
325.332	44.85
325.554	78.52
325.776	55.18
325.998	56.29
326.22	63.23
326.442	56.63
326.664	71.96
326.886	66.95
327.108	73.97
327.33	54.25
327.551	72.34
327.773	87.91
327.995	38.64
328.217	74.73
328.439	85.27
328.66	55.25
328.882	75.79
329.104	33.66
329.325	52.66
329.547	37.65
329.769	55.66
329.99	59.89
330.212	37.98
330.433	35
330.655	52.41
330.876	41.67
331.098	64.35
331.319	56.73
331.54	70.98
331.762	36.78
331.983	83.06
332.204	72
332.426	56.09
332.647	56.76
332.868	55.6
333.089	69.76
333.311	81.85
333.532	77.38
333.753	58.38
333.974	64.82
334.195	80.92
334.416	92.78
334.637	65.23
334.858	67.25
335.079	37.28
335.3	81.07
335.521	75
335.742	72.11
335.963	57.58
336.184	76.98
336.405	62.32
336.626	40.7
336.846	70.23
337.067	43.91
337.288	65.9
337.509	99.74
337.729	72.15
337.95	71.34
338.171	59.11
338.391	49.45
338.612	65.77
338.833	40.7
339.053	52.74
339.274	53.87
339.494	50.04
339.715	63.02
339.935	51.68
340.156	87.27
340.376	71.5
340.596	77.71
340.817	2.45
341.037	50.4
341.257	40.8
341.478	32.02
341.698	58.88
341.918	81.52
342.138	65.89
342.359	19.73
342.579	74.05
342.799	95.33
343.019	106.78
343.239	45.92
343.459	53.77
343.679	91.77
343.899	54.08
344.119	60.1
344.339	107.11
344.559	55.1
344.779	74.5
344.999	70.6
345.219	105.1
345.439	61.22
345.658	69.74
345.878	54.54
346.098	65.11
346.318	60.52
346.537	64.99
346.757	58.44
346.977	79.47
347.196	60.49
347.416	43.7
347.636	70.72
347.855	51.3
348.075	32.09
348.294	67.31
348.514	95.99
348.733	84.2
348.953	65.61
349.172	58.39
349.392	51.5
349.611	37.59
349.83	100.48
350.05	50.46
350.269	46.06
350.488	86.98
350.707	61.28
350.927	55.22
351.146	62.01
351.365	66.7
351.584	87.14
351.803	50.83
352.023	56.4
352.242	60.79
352.461	62.03
352.68	93.17
352.899	40.72
353.118	70.65
353.337	52.15
353.556	79.99
353.775	86.36
353.993	63.38
354.212	99.75
354.431	52.26
354.65	58.53
354.869	60.03
355.088	68.84
355.306	57.69
355.525	58.41
355.744	44.6
355.962	29.28
356.181	43.64
356.4	32.34
356.618	66.69
356.837	50.53
357.055	57.76
357.274	62.95
357.492	9.49
357.711	62.84
357.929	52.32
358.148	57.34
358.366	81.01
358.585	66.21
358.803	50.03
359.021	70.37
359.24	49.95
359.458	59.74
359.676	42.77
359.894	83
360.113	90.95
360.331	51.18
360.549	41.13
360.767	24.02
360.985	43.47
361.203	50.53
361.421	54.81
361.639	80.27
361.857	64.04
362.075	78.15
362.293	79.94
362.511	50.34
362.729	77.69
362.947	49
363.165	47.56
363.383	75.82
363.601	46.05
363.819	29.79
364.036	45.98
364.254	75.56
364.472	65.77
364.689	81.53
364.907	71.2
365.125	82.54
365.342	68.06
365.56	29.27
365.778	52.5
365.995	50.16
366.213	39.49
366.43	32.21
366.648	38.69
366.865	81.68
367.083	60.66
367.3	55.06
367.517	53.57
367.735	31.42
367.952	48.93
368.17	71.62
368.387	44.03
368.604	32.31
368.821	71.63
369.039	79.74
369.256	44.71
369.473	70.77
369.69	76.4
369.907	12.61
370.124	34.2
370.341	66.9
370.558	51.71
370.776	62.26
370.993	72.33
371.21	55.6
371.426	57.7
371.643	69.05
371.86	38.09
372.077	64.23
372.294	83.72
372.511	63.54
372.728	58.05
372.945	68.14
373.161	48.99
373.378	45.63
373.595	69.5
373.811	57.47
374.028	52.6
374.245	96.23
374.461	42.44
374.678	74.73
374.895	71.71
375.111	12.21
375.328	63.51
375.544	38.66
375.761	39.18
375.977	72.55
376.194	32.92
376.41	43.17
376.626	51.06
376.843	59.46
377.059	38.84
377.275	40.25
377.492	40.7
377.708	35.89
377.924	44.91
378.14	55.83
378.357	25.47
378.573	55.84
378.789	41.11
379.005	50.39
379.221	60.29
379.437	45.06
379.653	41.81
379.869	34.57
380.085	33.01
380.301	34.05
380.517	43.61
380.733	70.91
380.949	39.29
381.165	72.36
381.381	69.99
381.597	40.04
381.813	58.03
382.028	68.77
382.244	45.93
382.46	68.81
382.676	45.67
382.891	43.82
383.107	55.19
383.323	45.92
383.538	66.49
383.754	68.5
383.969	39.02
384.185	30.84
384.4	42.43
384.616	60.15
384.831	23.57
385.047	30.68
385.262	39.78
385.478	12.88
385.693	54.06
385.909	40.32
386.124	40.63
386.339	45.04
386.554	58.51
386.77	32.29
386.985	39.55
387.2	30.85
387.415	57.36
387.631	44.64
387.846	38.93
388.061	46.49
388.276	40.52
388.491	37.34
388.706	30.69
388.921	42.67
389.136	39.55
389.351	34.48
389.566	41.34
389.781	20.19
389.996	32.88
390.211	35.17
390.426	28.94
390.641	30.57
390.855	32
391.07	41.95
391.285	45.98
391.5	36.04
391.714	37.43
391.929	24.8
392.144	37.06
392.358	33.65
392.573	32.88
392.788	32.06
393.002	13.75
393.217	18.37
393.431	34.5
393.646	31.18
393.86	26.61
394.075	15.36
394.289	26.49
394.504	29.51
394.718	25.6
394.933	22.98
395.147	32.08
395.361	24.5
395.576	25.97
395.79	24.19
396.004	24.68
396.218	16.63
396.432	15.07
396.647	24.9
396.861	35.05
397.075	24.31
397.289	23.11
397.503	25.4
397.717	27.21
397.931	19.94
398.145	23.37
398.359	20.87
398.573	23.98
398.787	18.11
399.001	23.14
399.215	21.83
399.429	22.1
399.643	17.05
399.857	12.59
400.07	14.25
400.284	16.79
400.498	14.85
400.712	20.79
400.925	28.64
401.139	17.11
401.353	18.29
401.566	17.87
401.78	13.56
401.994	11.59
402.207	16.89
402.421	12.79
402.634	18.36
402.848	17.38
403.061	15.41
403.275	17.06
403.488	11.43
403.702	18.06
403.915	14.62
404.128	14.51
404.342	14.1
404.555	17.21
404.768	14.42
404.982	15.65
405.195	14.04
405.408	15.81
405.621	15.35
405.835	16.41
406.048	12.35
406.261	13.06
406.474	14.44
406.687	12.29
406.9	14.43
407.113	11.52
407.326	13.46
407.539	19.04
407.752	13.06
407.965	12.56
408.178	12.31
408.391	13.25
408.604	13.98
408.817	11.29
409.029	10.48
409.242	12.33
409.455	13.75
409.668	11.18
409.881	14.94
410.093	11.19
410.306	13.9
410.519	11.62
410.731	11.7
410.944	12.47
411.157	11.89
411.369	14.13
411.582	13.61
411.794	10.44
412.007	12.75
412.219	12.07
412.432	11.67
412.644	12.01
412.857	12.06
413.069	12.5
413.281	11.88
413.494	10.43
413.706	11.57
413.918	8.86
414.131	11.85
414.343	12.22
414.555	9.95
414.767	11.31
414.979	12.49
415.192	11.75
415.404	11.6
415.616	12.2
415.828	12.37
416.04	12.84
416.252	11.99
416.464	10.53
416.676	11.35
416.888	11.05
417.1	11.57
417.312	12.31
417.524	12.62
417.736	11.48
417.948	13.02
418.159	12.5
418.371	11.02
418.583	12.18
418.795	11.42
419.007	13.07
419.218	12.05
419.43	12.87
419.642	12.63
419.853	11.38
420.065	11.01
420.276	10.09
420.488	13.3
420.7	13.15
420.911	12.39
421.123	11.88
421.334	11.41
421.546	12.82
421.757	11.81
421.969	12.7
422.18	12.93
422.391	13.47
422.603	13.24
422.814	13.7
423.025	13.74
423.237	13.7
423.448	11.83
423.659	14.87
423.87	13.83
424.082	12.83
424.293	14.52
424.504	14.57
424.715	13.63
424.926	15.29
425.137	15.27
425.348	15.21
425.559	14.45
425.77	16.19
425.981	14.93
426.192	15.11
426.403	16.16
426.614	15.27
426.825	15.84
427.036	16.93
427.247	15.95
427.458	16.01
427.668	16.6
427.879	17.17
428.09	18.28
428.301	16.03
428.511	17.29
428.722	17.77
428.933	15.74
429.143	17.91
429.354	17.27
429.565	17.17
429.775	17.92
429.986	18.53
430.196	19.06
430.407	19.48
430.617	19.77
430.828	19.52
431.038	20.47
431.249	20.87
431.459	20.65
431.669	20.54
431.88	20.43
432.09	21.99
432.3	21.15
432.511	21.84
432.721	22.17
432.931	22.44
433.141	23.58
433.351	24.08
433.562	22.82
433.772	24.72
433.982	26.02
434.192	24.68
434.402	25.63
434.612	25.56
434.822	26.61
435.032	27.61
435.242	26.86
435.452	27.25
435.662	28.52
435.872	27.62
436.082	30.46
436.292	31.28
436.502	29.7
436.711	30.52
436.921	32.1
437.131	31.55
437.341	32.68
437.551	32.94
437.76	33.59
437.97	34.24
438.18	35.49
438.389	35.58
438.599	35.23
438.808	36.58
439.018	37.79
439.228	39.12
439.437	38.26
439.647	39.99
439.856	39.65
440.066	42.6
440.275	43.97
440.484	43.02
440.694	43.56
440.903	44.28
441.113	45.28
441.322	46.24
441.531	47.57
441.741	48.02
441.95	49.17
442.159	49.53
442.368	52.32
442.577	52.49
442.787	53.03
442.996	54.43
443.205	55.79
443.414	59.4
443.623	59.6
443.832	59.39
444.041	59.43
444.25	60.77
444.459	62.3
444.668	64.69
444.877	64.77
445.086	67.44
445.295	67.49
445.504	67.03
445.713	69.33
445.922	71.25
446.13	71.32
446.339	71.52
446.548	74.09
446.757	72.92
446.965	74.48
447.174	73.98
447.383	74.9
447.591	76.18
447.8	75.36
448.009	78.88
448.217	77.64
448.426	78.01
448.634	77.27
448.843	79.77
449.051	80.94
449.26	81.95
449.468	81.9
449.677	81.21
449.885	80.31
450.093	80.66
450.302	81.49
450.51	81.57
450.719	80.76
450.927	81.96
451.135	81.1
451.343	80.76
451.552	79.28
451.76	79.25
451.968	76.84
452.176	80.05
452.384	78.12
452.592	77.96
452.8	78.42
453.009	77.05
453.217	74.69
453.425	74.22
453.633	73.79
453.841	71.02
454.049	71.2
454.257	69.29
454.464	68.75
454.672	67.66
454.88	67.22
455.088	65.32
455.296	66.21
455.504	63.36
455.711	62.97
455.919	64.26
456.127	59.64
456.335	58.48
456.542	59.92
456.75	57.94
456.958	56.85
457.165	57.59
457.373	54.95
457.581	54.95
457.788	53.01
457.996	53.02
458.203	51.16
458.411	50.85
458.618	49.32
458.826	48.54
459.033	47.82
459.24	46.77
459.448	46.76
459.655	45.77
459.863	44.05
460.07	44.29
460.277	43.12
460.484	41.99
460.692	40.02
460.899	40.24
461.106	39.84
461.313	38.18
461.52	39.39
461.728	37.7
461.935	37.09
462.142	35.87
462.349	35.83
462.556	35.37
462.763	33.08
462.97	33.57
463.177	33.65
463.384	31.58
463.591	32.71
463.798	31.42
464.005	31.26
464.212	30.59
464.418	30.68
464.625	30.37
464.832	28.63
465.039	28.08
465.246	29.07
465.452	27.26
465.659	27.59
465.866	27.23
466.072	26.43
466.279	27.15
466.486	26.52
466.692	25.88
466.899	25.63
467.105	24.52
467.312	23.97
467.519	23.63
467.725	24.45
467.931	23.4
468.138	23.17
468.344	22.84
468.551	22.48
468.757	22.33
468.964	22.67
469.17	21.25
469.376	21.65
469.583	22.57
469.789	20.05
469.995	19.64
470.201	20.28
470.408	20.1
470.614	18.89
470.82	19.33
471.026	19.24
471.232	19
471.438	18.88
471.644	18.19
471.85	17.87
472.056	18.55
472.262	17.69
472.468	16.95
472.674	18.17
472.88	17.62
473.086	17.44
473.292	16.83
473.498	17.06
473.704	15.64
473.91	17.1
474.116	17.12
474.321	16.38
474.527	15.91
474.733	15.97
474.939	14.87
475.144	15.58
475.35	15.39
475.556	14.5
475.761	14.69
475.967	14.83
476.173	14.21
476.378	14.68
476.584	14.82
476.789	13.27
476.995	14.51
477.2	13.62
477.406	13.41
477.611	13.79
477.817	13.58
478.022	14.12
478.227	13.65
478.433	12.9
478.638	12.85
478.843	13.2
479.049	12.65
479.254	12.81
479.459	12.72
479.664	12.1
479.87	13.07
480.075	12.46
480.28	12.3
480.485	12.82
480.69	12.49
480.895	11.46
481.1	11.86
481.306	12.26
481.511	12.55
481.716	11.8
481.921	11.68
482.126	12.59
482.33	11.54
482.535	11.53
482.74	11.55
482.945	11.51
483.15	11.01
483.355	11.1
483.56	11.18
483.765	11.39
483.969	10.75
484.174	11.25
484.379	10.75
484.583	10.73
484.788	10.42
484.993	10.44
485.197	10.42
485.402	10.48
485.607	10.61
485.811	10.39
486.016	10.7
486.22	9.99
486.425	10.19
486.629	10.13
486.834	9.87
487.038	10.06
487.243	9.71
487.447	9.79
487.652	10.33
487.856	9.56
488.06	9.95
488.265	10.35
488.469	9.73
488.673	9.64
488.877	10.19
489.082	9.28
489.286	8.79
489.49	9.83
489.694	10.2
489.898	9.84
490.102	9.11
490.307	9.67
490.511	9.72
490.715	9.33
490.919	9.55
491.123	9.49
491.327	9.05
491.531	8.96
491.735	9.08
491.939	9.31
492.143	8.93
492.346	9.03
492.55	9.08
492.754	9.05
492.958	9.26
493.162	8.5
493.366	8.75
493.569	8.61
493.773	9.32
493.977	8.65
494.18	9.02
494.384	8.74
494.588	9.22
494.791	8.52
494.995	8.77
495.199	8.32
495.402	8.63
495.606	7.93
495.809	8.86
496.013	8.53
496.216	8.45
496.42	8.39
496.623	8.63
496.827	8.87
497.03	8.65
497.233	8.28
497.437	8.49
497.64	8.15
497.843	8.17
498.047	8.66
498.25	8.2
498.453	8.14
498.656	8.08
498.86	8.29
499.063	7.93
499.266	8.18
499.469	8.08
499.672	8.5
499.875	8.25
500.078	8.13
500.281	8.12
500.484	7.92
500.687	8.2
500.89	8.76
501.093	8.38
501.296	8.29
501.499	8.19
501.702	8.27
501.905	8.13
502.108	7.75
502.311	7.97
502.514	8.32
502.716	7.97
502.919	7.75
503.122	8.11
503.325	8.22
503.527	7.77
503.73	8.2
503.933	7.81
504.135	7.91
504.338	8.03
504.541	7.78
504.743	7.9
504.946	8.05
505.148	7.79
505.351	7.85
505.553	7.74
505.756	7.87
505.958	8.3
506.161	7.97
506.363	7.91
506.565	7.74
506.768	8.06
506.97	8.12
507.172	7.67
507.375	8.27
507.577	7.82
507.779	7.84
507.982	7.99
508.184	7.68
508.386	7.57
508.588	7.5
508.79	7.7
508.993	7.67
509.195	7.78
509.397	7.7
509.599	7.6
509.801	7.97
510.003	7.98
510.205	7.84
510.407	7.61
510.609	7.79
510.811	7.95
511.013	7.87
511.215	7.88
511.417	8
511.618	7.73
511.82	7.66
512.022	7.22
512.224	8.12
512.426	7.49
512.627	7.8
512.829	8
513.031	7.85
513.233	8.04
513.434	7.75
513.636	7.72
513.838	7.92
514.039	7.9
514.241	7.78
514.442	8.05
514.644	8.02
514.845	8.01
515.047	7.58
515.248	7.92
515.45	7.86
515.651	7.91
515.853	8.23
516.054	7.91
516.256	7.91
516.457	8.12
516.658	7.82
516.86	8.02
517.061	8.26
517.262	8.13
517.463	8.11
517.665	7.9
517.866	8.15
518.067	8.13
518.268	8.18
518.469	8.18
518.67	8.09
518.872	8.21
519.073	8.3
519.274	8.28
519.475	8.21
519.676	8.58
519.877	8.38
520.078	8.16
520.279	8.05
520.48	8.41
520.681	8.12
520.881	8.2
521.082	8.23
521.283	8.38
521.484	8.26
521.685	8.6
521.886	8.3
522.086	8.55
522.287	8.25
522.488	8.61
522.689	8.34
522.889	8.43
523.09	8.27
523.291	8.62
523.491	7.77
523.692	8.6
523.892	8.43
524.093	8.32
524.294	8.58
524.494	8.68
524.695	8.85
524.895	8.83
525.096	8.59
525.296	8.71
525.496	8.37
525.697	8.69
525.897	8.68
526.098	8.83
526.298	8.89
526.498	9.14
526.699	8.77
526.899	8.92
527.099	9.13
527.299	8.95
527.499	9.14
527.7	9.08
527.9	9.13
528.1	9.18
528.3	9.11
528.5	9.1
528.7	9.21
528.9	9.3
529.1	8.85
529.3	9.3
529.5	9.12
529.7	9.43
529.9	9.39
530.1	9.52
530.3	9.52
530.5	9.45
530.7	9.46
530.9	9.4
531.1	9.51
531.3	9.69
531.499	9.7
531.699	9.7
531.899	9.8
532.099	9.74
532.298	9.61
532.498	9.91
532.698	9.96
532.897	9.92
533.097	9.77
533.297	9.98
533.496	10.23
533.696	9.94
533.895	10.16
534.095	10.17
534.294	10.14
534.494	10.31
534.693	10.01
534.893	9.93
535.092	10.2
535.292	10.29
535.491	10.18
535.69	10.23
535.89	10.07
536.089	10.3
536.288	10.52
536.488	10.37
536.687	10.65
536.886	10.74
537.085	10.64
537.285	10.64
537.484	10.66
537.683	10.7
537.882	10.99
538.081	10.84
538.28	11.15
538.479	11.14
538.678	11.12
538.877	11.1
539.076	11.12
539.275	11.11
539.474	11.16
539.673	11.07
539.872	11.33
540.071	11.52
540.27	11.49
540.469	11.72
540.668	11.59
540.867	11.55
541.065	11.54
541.264	11.73
541.463	11.88
541.662	11.89
541.861	11.83
542.059	11.72
542.258	12.09
542.457	12.05
542.655	12.28
542.854	12.21
543.052	12.17
543.251	12.35
543.45	12.29
543.648	12.39
543.847	12.5
544.045	12.57
544.244	12.63
544.442	12.74
544.641	12.77
544.839	12.82
545.037	12.91
545.236	12.89
545.434	12.74
545.632	12.98
545.831	13.07
546.029	13.17
546.227	13.26
546.426	13.28
546.624	13.31
546.822	13.55
547.02	13.31
547.218	13.43
547.417	13.6
547.615	13.83
547.813	13.84
548.011	13.73
548.209	14.08
548.407	13.79
548.605	14.04
548.803	14.17
549.001	14.2
549.199	14.5
549.397	14.51
549.595	14.63
549.793	14.46
549.991	14.81
550.189	14.54
550.387	14.79
550.584	14.9
550.782	15.06
550.98	15.08
551.178	15.24
551.376	15.22
551.573	15.48
551.771	15.35
551.969	15.54
552.166	15.6
552.364	15.54
552.562	15.69
552.759	15.91
552.957	15.87
553.154	16.24
553.352	16.18
553.55	16.29
553.747	16.29
553.945	16.46
554.142	16.68
554.339	16.91
554.537	16.95
554.734	17.26
554.932	17.16
555.129	17.07
555.326	17.25
555.524	17.41
555.721	17.42
555.918	17.63
556.116	17.45
556.313	17.74
556.51	17.95
556.707	17.81
556.904	18.04
557.102	18.3
557.299	18.43
557.496	18.39
557.693	18.38
557.89	18.59
558.087	18.73
558.284	18.73
558.481	18.86
558.678	18.86
558.875	19.1
559.072	19.16
559.269	19.14
559.466	19.51
559.663	19.43
559.86	19.7
560.057	19.73
560.254	19.95
560.45	20.15
560.647	20.32
560.844	20.69
561.041	20.9
561.237	21.14
561.434	21.17
561.631	21.3
561.828	21.31
562.024	21.47
562.221	21.54
562.418	21.71
562.614	22.01
562.811	22.07
563.007	22.27
563.204	22.45
563.4	22.68
563.597	22.8
563.793	22.77
563.99	23.02
564.186	23.11
564.383	23.3
564.579	23.5
564.775	23.5
564.972	23.69
565.168	24.02
565.365	24.07
565.561	24.4
565.757	24.45
565.953	24.74
566.15	24.94
566.346	25.15
566.542	25.36
566.738	25.76
566.934	25.72
567.131	25.95
567.327	26.15
567.523	26.17
567.719	26.59
567.915	26.65
568.111	27
568.307	26.87
568.503	27.13
568.699	27.46
568.895	27.75
569.091	27.7
569.287	27.91
569.483	27.95
569.679	28.35
569.875	28.55
570.07	28.61
570.266	28.84
570.462	28.98
570.658	29.28
570.854	29.5
571.049	29.67
571.245	30.08
571.441	30.23
571.636	30.21
571.832	30.51
572.028	30.76
572.223	31.02
572.419	31
572.615	31.22
572.81	31.79
573.006	31.73
573.201	32.01
573.397	32.27
573.592	32.69
573.788	32.77
573.983	33.14
574.179	32.97
574.374	33.05
574.569	33.26
574.765	33.68
574.96	34.09
575.156	34.26
575.351	34.62
575.546	34.73
575.741	35.15
575.937	35.48
576.132	35.45
576.327	35.98
576.522	36.13
576.718	36.1
576.913	36.59
577.108	36.86
577.303	37.16
577.498	37.45
577.693	37.91
577.888	38.17
578.083	38.78
578.278	38.97
578.473	39.08
578.668	39.51
578.863	39.8
579.058	39.95
579.253	40.17
579.448	40.2
579.643	40.01
579.838	40.5
580.033	41.02
580.227	41.41
580.422	41.51
580.617	41.71
580.812	41.81
581.006	41.77
581.201	42.66
581.396	42.91
581.591	43.29
581.785	43.75
581.98	43.96
582.175	44.37
582.369	44.51
582.564	44.83
582.758	44.98
582.953	45.4
583.147	45.97
583.342	46.22
583.536	46.61
583.731	47.06
583.925	47.3
584.12	47.97
584.314	47.75
584.509	47.93
584.703	48.68
584.897	49.11
585.092	49.1
585.286	49.49
585.48	49.92
585.674	49.86
585.869	50.18
586.063	50.56
586.257	50.97
586.451	50.98
586.646	51.45
586.84	51.77
587.034	51.99
587.228	52.37
587.422	52.67
587.616	53.2
587.81	53.99
588.004	54.18
588.198	54.38
588.392	54.19
588.586	54.45
588.78	54.46
588.974	54.96
589.168	55.03
589.362	55.63
589.556	55.71
589.75	56.18
589.944	56.78
590.137	57.2
590.331	57.31
590.525	57.78
590.719	58.43
590.913	58.64
591.106	58.86
591.3	58.8
591.494	59.45
591.687	59.82
591.881	60.21
592.075	60.54
592.268	60.83
592.462	61.01
592.655	61.35
592.849	61.43
593.043	61.67
593.236	61.9
593.43	62.37
593.623	62.53
593.817	63.01
594.01	63.42
594.203	64.15
594.397	64.65
594.59	64.92
594.784	65.36
594.977	65.54
595.17	65.59
595.364	66.31
595.557	66.24
595.75	66.37
595.943	66.87
596.137	67.1
596.33	67.32
596.523	67.8
596.716	68.1
596.909	68.76
597.102	68.87
597.296	69.38
597.489	69.24
597.682	69.48
597.875	69.91
598.068	70.5
598.261	71.42
598.454	71.34
598.647	71.57
598.84	72.12
599.033	72.53
599.226	73.11
599.419	73.79
599.611	74.33
599.804	74.67
599.997	74.32
600.19	74.27
600.383	74.45
600.576	74.91
600.768	74.87
600.961	75.2
601.154	75.65
601.347	76
601.539	76.69
601.732	77.06
601.925	77.27
602.117	77.05
602.31	77.39
602.502	76.89
602.695	77.18
602.888	77.24
603.08	77.78
603.273	78.08
603.465	78.74
603.658	78.69
603.85	79.17
604.043	79.6
604.235	80.62
604.427	80.95
604.62	81.31
604.812	81.24
605.004	81.32
605.197	81.51
605.389	81.53
605.581	81.41
605.774	81.13
605.966	81.42
606.158	81.68
606.35	81.91
606.543	81.83
606.735	81.93
606.927	82.43
607.119	82.69
607.311	82.57
607.503	83.19
607.695	83.48
607.887	83.31
608.079	83.54
608.271	83.64
608.463	83.81
608.655	83.88
608.847	83.97
609.039	83.9
609.231	84.36
609.423	84.61
609.615	84.9
609.807	85.17
609.999	85.96
610.191	85.88
610.382	86.28
610.574	86.17
610.766	86.12
610.958	86.26
611.15	86.17
611.341	86.13
611.533	86.27
611.725	86.47
611.916	86.68
612.108	86.72
612.3	86.81
612.491	86.77
612.683	87.04
612.874	87.21
613.066	87.05
613.257	86.4
613.449	87.21
613.64	86.75
613.832	86.9
614.023	87.24
614.215	87.65
614.406	87.9
614.598	88.06
614.789	87.93
614.98	87.6
615.172	87.71
615.363	87.95
615.554	88.26
615.746	88.06
615.937	88.15
616.128	88.32
616.319	88.54
616.511	88.73
616.702	88.55
616.893	88.76
617.084	88.68
617.275	88.58
617.466	88.33
617.658	88.4
617.849	88.73
618.04	88.8
618.231	88.7
618.422	89.27
618.613	89.86
618.804	90.26
618.995	90.07
619.186	89.63
619.377	89.58
619.568	89.59
619.758	89.4
619.949	89.09
620.14	88.89
620.331	88.7
620.522	88.59
620.713	89.25
620.903	89.16
621.094	89.65
621.285	89.64
621.476	89.77
621.666	89.21
621.857	89.03
622.048	88.84
622.238	89.06
622.429	88.95
622.62	89.28
622.81	89.25
623.001	89.97
623.191	90.28
623.382	90.17
623.572	90.59
623.763	90.43
623.953	89.96
624.144	89.99
624.334	89.78
624.525	89.66
624.715	89.89
624.905	90.36
625.096	90.47
625.286	90.09
625.477	90.63
625.667	90.29
625.857	90.28
626.047	90.67
626.238	90.2
626.428	89.67
626.618	89.95
626.808	90.41
626.999	91.16
627.189	91.04
627.379	90.97
627.569	91.28
627.759	90.73
627.949	90.45
628.139	90.4
628.329	90.35
628.519	89.89
628.709	90
628.899	90.06
629.089	89.99
629.279	89.79
629.469	89.82
629.659	90.02
629.849	89.47
630.039	89.67
630.229	90.08
630.419	89.88
630.609	89.95
630.798	89.92
630.988	90
631.178	89.95
631.368	89.14
631.557	88.67
631.747	89.23
631.937	89.17
632.127	89.52
632.316	88.9
632.506	89.1
632.696	89.05
632.885	89.4
633.075	89.31
633.264	89.53
633.454	89.94
633.643	89.62
633.833	89.49
634.022	89.47
634.212	89.59
634.401	90.26
634.591	90.09
634.78	89.68
634.97	88.76
635.159	88.26
635.348	88.07
635.538	87.96
635.727	87.76
635.916	87.54
636.106	87.66
636.295	87.47
636.484	88.16
636.674	88.45
636.863	88.76
637.052	88.41
637.241	88.73
637.43	88.98
637.619	88.9
637.809	89.2
637.998	88.98
638.187	88.94
638.376	88.37
638.565	88.54
638.754	88.42
638.943	88.46
639.132	88.45
639.321	88.2
639.51	88.5
639.699	88.79
639.888	88.67
640.077	89.84
640.266	89.59
640.455	89.64
640.643	89.26
640.832	88.52
641.021	88.19
641.21	88.01
641.399	87.85
641.587	87.85
641.776	87.92
641.965	87.87
642.154	88.1
642.342	88.11
642.531	87.76
642.72	87.39
642.908	87.03
643.097	87.62
643.286	88.32
643.474	88.55
643.663	88.14
643.851	88.64
644.04	88.11
644.228	87.51
644.417	87.87
644.605	87.92
644.794	88.38
644.982	88.29
645.171	88.31
645.359	88.2
645.547	88.07
645.736	87.4
645.924	87.18
646.112	87.36
646.301	87.42
646.489	87.51
646.677	87.14
646.866	87.11
647.054	87.28
647.242	87.72
647.43	87.74
647.618	87.82
647.807	87.48
647.995	87.21
648.183	86.46
648.371	86.46
648.559	86.59
648.747	87.25
648.935	87.09
649.123	86.8
649.311	86.93
649.499	86.77
649.687	86.58
649.875	86.68
650.063	86.9
650.251	87.1
650.439	86.69
650.627	86.17
650.815	86.1
651.003	86.09
651.191	86.25
651.378	86.27
651.566	86.28
651.754	86.01
651.942	86.32
652.13	86.37
652.317	86.33
652.505	86.36
652.693	86.51
652.88	86.09
653.068	86.5
653.256	86.62
653.443	86.8
653.631	86.16
653.819	86.58
654.006	86.68
654.194	86.46
654.381	86.31
654.569	85.73
654.756	86.16
654.944	86.22
655.131	86.7
655.319	86.17
655.506	85.93
655.693	85.67
655.881	85.77
656.068	85.73
656.256	86.05
656.443	86.51
656.63	86.42
656.818	86.46
657.005	86.58
657.192	86.07
657.379	85.94
657.567	86.08
657.754	86.3
657.941	85.97
658.128	86.02
658.315	85.66
658.502	85.83
658.69	85.8
658.877	86.01
659.064	85.66
659.251	86.2
659.438	86.23
659.625	86.72
659.812	86.48
659.999	86.71
660.186	86.87
660.373	87.35
660.56	86.92
660.747	86.98
660.934	86.58
661.121	86.16
661.308	86.12
661.494	86.56
661.681	86.09
661.868	85.86
662.055	85.3
662.242	85.94
662.428	85.59
662.615	85.87
662.802	85.28
662.989	85.47
663.175	85
663.362	85.39
663.549	85.2
663.735	85.54
663.922	85.83
664.109	86
664.295	86.28
664.482	86.54
664.668	86.38
664.855	86.7
665.041	86.09
665.228	85.76
665.414	85.02
665.601	85.02
665.787	84.83
665.974	85.43
666.16	85.68
666.347	85.47
666.533	85.42
666.719	85.38
666.906	86
667.092	86.39
667.278	86.3
667.465	86.37
667.651	86.38
667.837	86.07
668.023	86.11
668.21	86.01
668.396	85.83
668.582	86.06
668.768	86.28
668.954	86.26
669.14	86.52
669.327	87.05
669.513	87.34
669.699	86.81
669.885	86.75
670.071	86.61
670.257	86.79
670.443	86.9
670.629	86.29
670.815	86.33
671.001	85.72
671.187	86.26
671.373	86.45
671.559	86.69
671.744	86.86
671.93	86.79
672.116	87.26
672.302	87.11
672.488	87.03
672.674	86.68
672.859	86.44
673.045	86.36
673.231	86.35
673.417	86.4
673.602	86.45
673.788	86.8
673.974	86.66
674.159	86.88
674.345	86.92
674.531	87.07
674.716	87.43
674.902	87.06
675.087	87.51
675.273	87.57
675.459	87.53
675.644	87.21
675.83	87.41
676.015	87.39
676.2	87.5
676.386	87.49
676.571	86.93
676.757	86.63
676.942	86.76
677.128	86.86
677.313	87.01
677.498	87.15
677.684	87.41
677.869	87.62
678.054	87.36
678.24	86.88
678.425	87.16
678.61	87.01
678.795	86.96
678.98	87.11
679.166	86.74
679.351	86.8
679.536	86.64
679.721	86.88
679.906	86.75
680.091	86.77
680.276	86.95
680.461	87.29
680.647	88.07
680.832	87.37
681.017	87.45
681.202	86.87
681.387	86.41
681.572	86.06
681.756	85.97
681.941	85.96
682.126	86.71
682.311	86.76
682.496	86.7
682.681	86.97
682.866	86.88
683.051	87.29
683.235	87.51
683.42	86.97
683.605	87.24
683.79	87.46
683.974	87.55
684.159	87.98
684.344	87.51
684.529	87.44
684.713	87.3
684.898	86.96
685.083	87.49
685.267	87.36
685.452	87.4
685.636	87.29
685.821	87.13
686.005	87.13
686.19	86.58
686.375	86.37
686.559	86.88
686.744	86.82
686.928	87.06
687.112	87.63
687.297	87.41
687.481	87
687.666	86.79
687.85	86.86
688.034	86.42
688.219	86.88
688.403	86.24
688.587	86.02
688.772	86.41
688.956	86.44
689.14	86.72
689.324	86.88
689.509	86.89
689.693	87.05
689.877	86.45
690.061	86.26
690.245	85.69
690.43	85.61
690.614	85.51
690.798	85.88
690.982	85.69
691.166	86
691.35	85.86
691.534	86.47
691.718	86.49
691.902	86.4
692.086	86.06
692.27	86.12
692.454	85.85
692.638	85.72
692.822	85.19
693.006	85.15
693.19	85.52
693.373	85.42
693.557	85.35
693.741	86.03
693.925	86.2
694.109	86.22
694.293	85.86
694.476	86.03
694.66	86.23
694.844	86.84
695.027	87.21
695.211	86.86
695.395	86.83
695.578	87.05
695.762	86.87
695.946	87.1
696.129	86.6
696.313	86.74
696.497	86.44
696.68	86.26
696.864	86.15
697.047	86.51
697.231	86.71
697.414	86.8
697.598	86.92
697.781	86.7
697.965	87.14
698.148	87.31
698.331	87.32
698.515	87.35
698.698	86.4
698.881	86.6
699.065	86.46
699.248	86.6
699.431	86.11
699.615	86.06
699.798	85.81
699.981	85.77
700.165	85.56
700.348	85.73
700.531	85.81
700.714	86.13
700.897	85.98
701.08	86.29
701.264	86.3
701.447	86.07
701.63	85.52
701.813	85.16
701.996	84.63
702.179	84.9
702.362	85.17
702.545	85.55
702.728	85.06
702.911	85.24
703.094	85.24
703.277	85.38
703.46	85.59
703.643	85.46
703.826	85.15
704.009	85.97
704.191	86.54
704.374	87.17
704.557	86.71
704.74	86.08
704.923	86.14
705.106	85.78
705.288	85.32
705.471	84.69
705.654	84.61
705.837	85.51
706.019	85.58
706.202	86.28
706.385	86.31
706.567	86.07
706.75	86.27
706.932	86.07
707.115	85.56
707.298	85.75
707.48	85.4
707.663	85.21
707.845	85.47
708.028	85.45
708.21	85.55
708.393	85.35
708.575	85.3
708.758	85.21
708.94	85.33
709.123	85.07
709.305	85.24
709.487	85.2
709.67	84.66
709.852	84.71
710.034	84.29
710.217	84.31
710.399	84.73
710.581	84.88
710.764	84.99
710.946	85.22
711.128	84.69
711.31	84.82
711.492	83.93
711.675	84.23
711.857	84.64
712.039	84.82
712.221	84.67
712.403	84.88
712.585	84.5
712.767	84.81
712.949	85.01
713.131	85.33
713.314	85
713.496	84.95
713.678	85.01
713.86	84.9
714.041	84.84
714.223	85.39
714.405	85.98
714.587	85.37
714.769	85.25
714.951	84.8
715.133	85.27
715.315	85.48
715.497	85.72
715.678	85.66
715.86	85.42
716.042	84.5
716.224	83.66
716.406	83.95
716.587	83.78
716.769	83.69
716.951	83.55
717.132	84.33
717.314	83.8
717.496	83.95
717.677	83.88
717.859	84.13
718.041	84.05
718.222	84.48
718.404	84.34
718.585	84.12
718.767	84.26
718.948	83.82
719.13	83.92
719.311	84.15
719.493	84.46
719.674	84.18
719.856	84.39
720.037	84.39
720.219	84.27
720.4	83.58
720.581	83.13
720.763	82.54
720.944	81.98
721.125	81.97
721.307	81.94
721.488	81.95
721.669	82.19
721.85	82.6
722.032	82.64
722.213	83.35
722.394	83.07
722.575	82.87
722.756	82.94
722.938	83.37
723.119	82.79
723.3	82.98
723.481	82.5
723.662	82.86
723.843	82.17
724.024	82.06
724.205	81.73
724.386	81.89
724.567	81.58
724.748	82.17
724.929	81.86
725.11	81.64
725.291	81.77
725.472	81.91
725.653	81.37
725.834	81.57
726.015	82.24
726.196	82.59
726.377	83.2
726.557	82.54
726.738	82.49
726.919	81.7
727.1	81.83
727.281	81.69
727.461	81.5
727.642	81.32
727.823	81.59
728.004	81.54
728.184	81.63
728.365	81.38
728.546	80.94
728.726	81.18
728.907	80.96
729.087	81.06
729.268	81.41
729.449	80.98
729.629	81.04
729.81	80.56
729.99	79.93
730.171	80.31
730.351	80.26
730.532	81.03
730.712	80.62
730.893	80.27
731.073	80.1
731.253	80.05
731.434	80.25
731.614	80.03
731.795	80.32
731.975	80.04
732.155	80.49
732.336	80.14
732.516	80.33
732.696	79.89
732.876	79.76
733.057	79.47
733.237	79.82
733.417	79.3
733.597	79.9
733.778	80.2
733.958	80
734.138	79.08
734.318	78.91
734.498	78.98
734.678	79.3
734.858	78.76
735.038	78.83
735.218	79.33
735.398	79.69
735.579	79.3
735.759	79.63
735.939	79.71
736.119	79.73
736.298	79.46
736.478	79.04
736.658	78.42
736.838	79.27
737.018	79.41
737.198	79.11
737.378	78.85
737.558	78.92
737.738	77.88
737.917	78.04
738.097	77.51
738.277	78.1
738.457	78.49
738.637	78.4
738.816	78.88
738.996	79.06
739.176	78.84
739.355	78.74
739.535	78.42
739.715	77.73
739.894	77.9
740.074	78.26
740.254	78.55
740.433	78.25
740.613	77.89
740.792	77.62
740.972	78.45
741.151	77.33
741.331	77.61
741.51	77.14
741.69	77.22
741.869	76.91
742.049	76.74
742.228	76.93
742.408	77.12
742.587	76.84
742.766	76.95
742.946	76.26
743.125	75.96
743.305	76.98
743.484	76.77
743.663	76.95
743.842	76.63
744.022	76.5
744.201	76.21
744.38	75.79
744.56	75.33
744.739	75.07
744.918	75.52
745.097	75.16
745.276	75.81
745.455	75.83
745.635	76.31
745.814	76.1
745.993	76.01
746.172	76.26
746.351	76.58
746.53	76.48
746.709	75.81
746.888	76.16
747.067	76.18
747.246	76.1
747.425	75.49
747.604	75.43
747.783	75.45
747.962	75.29
748.141	75.46
748.32	75.6
748.499	75.54
748.677	75.73
748.856	75.91
749.035	75.69
749.214	75.8
749.393	75.63
749.572	74.73
749.75	75.32
749.929	75.32
750.108	75.12
750.287	75.02
750.465	75.44
750.644	75.54
750.823	75.02
751.001	75.08
751.18	74.81
751.359	75.42
751.537	75.56
751.716	75.03
751.894	75.24
752.073	75.3
752.251	75.1
752.43	75
752.609	75.04
752.787	75.07
752.966	75.1
753.144	74.66
753.322	75.04
753.501	74.08
753.679	73.95
753.858	72.92
754.036	73.44
754.215	74.05
754.393	74.58
754.571	74.53
754.75	74.44
754.928	74.71
755.106	74.46
755.284	74.8
755.463	74.75
755.641	74.1
755.819	73.23
755.997	72.78
756.176	73
756.354	73.8
756.532	73.36
756.71	73.66
756.888	74.03
757.066	74.05
757.245	73.45
757.423	73.42
757.601	73.35
757.779	73.47
757.957	73.28
758.135	72.9
758.313	73.32
758.491	73.97
758.669	73.67
758.847	73.36
759.025	72.89
759.203	73.07
759.381	73.49
759.559	73.39
759.737	73.53
759.915	73.4
760.092	73.08
760.27	72.88
760.448	73.48
760.626	72.43
760.804	72.96
760.981	71.89
761.159	72.09
761.337	72.54
761.515	72.3
761.692	72.3
761.87	71.95
762.048	72.16
762.226	72.27
762.403	72.45
762.581	73.29
762.759	72.28
762.936	71.95
763.114	71.86
763.291	71.83
763.469	71.72
763.647	71.95
763.824	71.47
764.002	72.37
764.179	72.45
764.357	72.28
764.534	71.79
764.712	71.99
764.889	72.23
765.066	72.11
765.244	72.25
765.421	71.95
765.599	71.91
765.776	72.04
765.953	71.45
766.131	72.35
766.308	72.01
766.485	71.96
766.663	71.19
766.84	71.36
767.017	71.76
767.194	71.59
767.372	71.71
767.549	71.75
767.726	71.61
767.903	71.77
768.081	72.07
768.258	71.96
768.435	71.25
768.612	71.01
768.789	70.18
768.966	70.68
769.143	69.78
769.32	71.22
769.497	71.05
769.674	70.35
769.851	70.98
770.028	70.38
770.205	70.6
770.382	70.05
770.559	70.04
770.736	70.76
770.913	70.23
771.09	70.67
771.267	70.66
771.444	71.33
771.621	71.71
771.798	71.92
771.975	71.76
772.151	70.61
772.328	70.17
772.505	70.57
772.682	70.66
772.859	71.01
773.035	69.71
773.212	70.33
773.389	69.26
773.565	69.55
773.742	70.97
773.919	70.93
774.096	71.03
774.272	70.16
774.449	69.7
774.625	70.34
774.802	69.82
774.979	69.06
775.155	69.1
775.332	69.53
775.508	69.97
775.685	70.03
775.861	70.57
776.038	70.35
776.214	69.25
776.391	69.15
776.567	70.58
776.744	69.97
776.92	70.26
777.096	69.96
777.273	70.01
777.449	70.15
777.626	69.8
777.802	70.11
777.978	69.81
778.155	70.19
778.331	70.4
778.507	69.29
778.683	69.54
778.86	69.08
779.036	69.31
779.212	69.48
779.388	69.24
779.565	69.5
779.741	69.07
779.917	69.89
780.093	69.96
780.269	68.7
780.445	69.3
780.621	68.67
780.797	68.84
780.974	69.58
781.15	69.68
781.326	70.25
781.502	70.13
781.678	68.9
781.854	68.56
782.03	68.21
782.206	69.05
782.382	68.48
782.558	69.14
782.733	68.36
782.909	67.83
783.085	68.06
783.261	67.94
783.437	68.31
783.613	68.23
783.789	68.13
783.965	68.46
784.14	69.53
784.316	68.45
784.492	68.44
784.668	68.46
784.843	68.9
785.019	68.66
785.195	67.72
785.371	68.65
785.546	68.8
785.722	69.4
785.898	69.46
786.073	68.9
786.249	68.8
786.424	68.27
786.6	69.01
786.776	68.22
786.951	69.23
787.127	68.52
787.302	68.69
787.478	68.23
787.653	67.56
787.829	68.18
788.004	67.93
788.18	68.06
788.355	67.66
788.531	67.9
788.706	68.23
788.881	69.5
789.057	69.08
789.232	68.63
789.408	69.09
789.583	68.15
789.758	68.6
789.934	67.92
790.109	67.19
790.284	67.85
790.459	67.53
790.635	67.94
790.81	67.72
790.985	67.78
791.16	67.46
791.336	66.42
791.511	66.91
791.686	68.46
791.861	66.52
792.036	67.84
792.211	66.8
792.387	66.88
792.562	68.5
792.737	67
792.912	67.31
793.087	65.66
793.262	66.79
793.437	66.16
793.612	69.22
793.787	67.92
793.962	68.68
794.137	67.2
794.312	68.58
794.487	68.41
794.662	69.32
794.837	67.61
795.011	68.87
795.186	68.58
795.361	68.92
795.536	68.97
795.711	67.71
795.886	66.56
796.06	67.97
796.235	66.26
796.41	67.36
796.585	66.53
796.76	67.04
796.934	67.34
797.109	67.44
797.284	66.66
797.458	65.91
797.633	67.54
797.808	67.16
797.982	65.85
798.157	66.22
798.332	66.13
798.506	66.22
798.681	66.89
798.855	66.01
799.03	66.43
799.204	67.4
799.379	68.32
799.553	67.09
799.728	68.91
799.902	67.32
800.077	65.82
800.251	68.18
800.426	66.22
800.6	66.22
800.775	67.04
800.949	66.96
801.123	67.63
801.298	66.98
801.472	67.33
801.647	66.78
801.821	67.26
801.995	66.32
802.169	67.53
802.344	66.35
802.518	66.06
802.692	65.1
802.867	64.92
803.041	66.62
803.215	64.91
803.389	64.97
803.563	66.75
803.737	65.39
803.912	65.8
804.086	64.11
804.26	65.74
804.434	65.04
804.608	67
804.782	66.74
804.956	65.37
805.13	64.58
805.304	65.94
805.478	64.78
805.652	65.27
805.826	65.48
806	63.93
806.174	65.45
806.348	65.21
806.522	66.78
806.696	66.1
806.87	66.25
807.044	65.66
807.218	67.22
807.392	67.07
807.566	64.26
807.739	64.73
807.913	65.77
808.087	64.51
808.261	64.63
808.435	64.97
808.608	64.83
808.782	66.05
808.956	68.13
809.13	66.55
809.303	65.08
809.477	65.95
809.651	65.1
809.824	65.11
809.998	65.17
810.172	66.75
810.345	63.99
810.519	64.87
810.692	66.55
810.866	64.42
811.04	68.65
811.213	65.57
811.387	65.21
811.56	67.08
811.734	66.92
811.907	67.72
812.081	67.02
812.254	65.53
812.428	67.33
812.601	65.85
812.774	68.69
812.948	65.38
813.121	66.01
813.295	66.74
813.468	65.15
813.641	67.11
813.815	66.05
813.988	66.74
814.161	65.28
814.335	65.37
814.508	65.44
814.681	67.51
814.854	66.4
815.028	66.62
815.201	65.66
815.374	64.26
815.547	66.74
815.72	65.29
815.894	65
816.067	67.15
816.24	64.31
816.413	64.4
816.586	63.14
816.759	64.07
816.932	65.59
817.105	66.37
817.278	66.73
817.452	65.7
817.625	65.72
817.798	65.63
817.971	64.96
818.144	67.01
818.317	64.71
818.49	65.55
818.662	65.43
818.835	65.45
819.008	63.91
819.181	66.31
819.354	65.13
819.527	65.62
819.7	66.59
819.873	67.1
820.046	65.54
820.218	66.03
820.391	64.1
820.564	65.01
820.737	66.17
820.909	64.57
821.082	62.01
821.255	64.59
821.428	65.65
821.6	66.62
821.773	67.23
821.946	66.53
822.118	65.97
822.291	67.16
822.464	62.67
822.636	64.47
822.809	63.79
822.982	62.44
823.154	65.69
823.327	64.22
823.499	64.17
823.672	62.53
823.844	63.82
824.017	63.53
824.189	65.3
824.362	64.05
824.534	63.1
824.707	65.52
824.879	65.12
825.052	66.04
825.224	67.71
825.396	65.71
825.569	64.36
825.741	65.02
825.914	66.23
826.086	65.94
826.258	65.42
826.431	65.43
826.603	64.37
826.775	65.35
826.947	65.6
827.12	64.92
827.292	66.4
827.464	65.29
827.636	66.36
827.809	67.39
827.981	67.27
828.153	65.3
828.325	65
828.497	65.28
828.669	65.66
828.842	64.97
829.014	67.52
829.186	69.03
829.358	64.96
829.53	65.59
829.702	66.82
829.874	65.95
830.046	66.65
830.218	68.47
830.39	65.52
830.562	67.13
830.734	65.8
830.906	67.02
831.078	67.76
831.25	67.27
831.422	67.26
831.594	68.82
831.766	67.3
831.937	65.03
832.109	69.3
832.281	67.67
832.453	70.14
832.625	67.53
832.797	66.09
832.968	66.38
833.14	68.2
833.312	67.39
833.484	67.4
833.655	66.39
833.827	68.7
833.999	68.64
834.171	66.2
834.342	68.47
834.514	65.85
834.686	66.85
834.857	65.33
835.029	66.51
835.2	66.09
835.372	70.21
835.544	64.49
835.715	68.11
835.887	67.39
836.058	69.06
836.23	68.02
836.401	70.54
836.573	66
836.744	66.26
836.916	68.3
837.087	66.13
837.259	68.79
837.43	66.79
837.602	68.63
837.773	68.34
837.945	63.78
838.116	67.32
838.287	66.79
838.459	68.9
838.63	66.47
838.801	68.27
838.973	68.2
839.144	67.28
839.315	67.52
839.487	66.83
839.658	67.79
839.829	68.08
840	65.19
840.172	68.61
840.343	66.27
840.514	68.39
840.685	67.28
840.856	69.23
841.027	66.25
841.199	66.46
841.37	69.82
841.541	68.13
841.712	67.56
841.883	68.4
842.054	66.08
842.225	66.46
842.396	66.06
842.567	66.13
842.738	66.48
842.909	66.06
843.08	67.55
843.251	68.82
843.422	67.56
843.593	66.82
843.764	66.93
843.935	68.3
844.106	67.06
844.277	69.84
844.448	66.62
844.619	67.51
844.79	71.22
844.96	66.62
845.131	67.68
845.302	69.38
845.473	69.75
845.644	69.14
845.814	69.78
845.985	68.49
846.156	67.51
846.327	66.89
846.497	71.26
846.668	69.72
846.839	66.96
847.01	67.79
847.18	68.93
847.351	71.53
847.522	70.75
847.692	68.34
847.863	70.74
848.033	69.36
848.204	68.41
848.375	70.62
848.545	70.02
848.716	65.99
848.886	68.57
849.057	68.27
849.227	69.86
849.398	69.56
849.568	67.1
849.739	68.19
849.909	72.47
850.08	67.23
850.25	68.35
850.421	70.34
850.591	71.62
850.761	67.14
850.932	69.3
851.102	72.39
851.272	67
851.443	65.68
851.613	69.9
851.783	68.95
851.954	66.54
852.124	70.31
852.294	71.53
852.465	69.44
852.635	70.16
852.805	68.56
852.975	67.85
853.145	67.29
853.316	65.04
853.486	67.74
853.656	69.09
853.826	69.64
853.996	65.45
854.166	64.83
854.337	66.9
854.507	66.49
854.677	65.07
854.847	64.58
855.017	69.19
855.187	66.09
855.357	69.45
855.527	68.39
855.697	66.24
855.867	67.67
856.037	65.37
856.207	65.72
856.377	69.13
856.547	68.35
856.717	70.26
856.887	71.64
857.057	68.15
857.227	69.06
857.397	70.3
857.566	72.07
857.736	69.33
857.906	68.45
858.076	68.33
858.246	69.68
858.416	71.26
858.585	70.8
858.755	70.39
858.925	72.92
859.095	72.85
859.264	69.63
859.434	72.59
859.604	67.36
859.774	70.03
859.943	71.63
860.113	69.97
860.283	72.05
860.452	72.84
860.622	69.71
860.791	67.92
860.961	66.53
861.131	69.04
861.3	72.13
861.47	67.85
861.639	76
861.809	68.53
861.978	69.84
862.148	67.91
862.318	65.1
862.487	70.3
862.657	71.55
862.826	71.04
862.995	69.31
863.165	71.83
863.334	69.54
863.504	72.19
863.673	72.75
863.843	72.29
864.012	69.7
864.181	66.85
864.351	70.76
864.52	69.17
864.689	72.97
864.859	69.61
865.028	73.2
865.197	69.76
865.366	71
865.536	72.91
865.705	72.06
865.874	68.55
866.043	74.12
866.213	72.3
866.382	76.57
866.551	69.83
866.72	74.85
866.889	72.71
867.059	69.15
867.228	70.5
867.397	66.12
867.566	70.8
867.735	73.26
867.904	73.04
868.073	70.94
868.242	72.8
868.411	73.34
868.58	74.64
868.749	72.57
868.918	74.73
869.087	72.11
869.256	69.57
869.425	71.65
869.594	72.12
869.763	73.54
869.932	70.8
870.101	67.72
870.27	73.3
870.439	65.27
870.608	67.93
870.777	75.89
870.945	71.54
871.114	68.61
871.283	73.19
871.452	69.9
871.621	76.02
871.789	70.05
871.958	70.49
872.127	69.12
872.296	71.18
872.464	72.91
872.633	76.15
872.802	78.09
872.971	78.07
873.139	70.38
873.308	72.95
873.477	69.11
873.645	71.99
873.814	74.32
873.983	72.85
874.151	70.87
874.32	69.94
874.488	73.23
874.657	71.06
874.826	69.26
874.994	76.05
875.163	77.3
875.331	79.87
875.5	75.85
875.668	75.4
875.837	74.2
876.005	73.42
876.174	75.28
876.342	70.45
876.51	78.17
876.679	68.74
876.847	77.18
877.016	77.71
877.184	74.22
877.352	76.05
877.521	78.49
877.689	73.84
877.857	71.39
878.026	71.37
878.194	71.66
878.362	69.86
878.531	77.07
878.699	68.22
878.867	70.68
879.036	67.83
879.204	77.71
879.372	73.14
879.54	71.36
879.708	71.41
879.877	71.54
880.045	71.74
880.213	71.77
880.381	69.5
880.549	76.07
880.717	77.9
880.885	67.21
881.054	71.79
881.222	71.67
881.39	72.54
881.558	69.43
881.726	75.58
881.894	78.46
882.062	69.26
882.23	79.72
882.398	72.38
882.566	67.97
882.734	84.75
882.902	68.82
883.07	72.41
883.238	69.88
883.406	68.59
883.574	70.42
883.741	77.11
883.909	70.29
884.077	77.12
884.245	76.67
884.413	71.89
884.581	74.88
884.749	75.24
884.916	69.28
885.084	81.93
885.252	72.15
885.42	76.39
885.587	68.99
885.755	75.27
885.923	71.52
886.091	74.72
886.258	64.14
886.426	74.93
886.594	72.9
886.761	74.55
886.929	76.49
887.097	75.42
887.264	67.72
887.432	81.27
887.6	73.2
887.767	69.82
887.935	80.52
888.102	76.03
888.27	77.1
888.438	76.86
888.605	76.36
888.773	69.79
888.94	69.62
889.108	76.75
889.275	76.53
889.443	70.77
889.61	76.26
889.778	74.56
889.945	74.77
890.112	68.05
890.28	67.8
890.447	74.83
890.615	71.73
890.782	73.49
890.949	76.79
891.117	74.04
891.284	79.4
891.452	81.03
891.619	71.45
891.786	75.71
891.953	71.5
892.121	66.73
892.288	75.46
892.455	73.82
892.623	72.45
892.79	76.37
892.957	68.22
893.124	70.98
893.291	74.4
893.459	69.31
893.626	65.25
893.793	70.71
893.96	69.75
894.127	81.05
894.294	78.17
894.461	81.01
894.629	74.59
894.796	77.92
894.963	73.47
895.13	75.33
895.297	68.76
895.464	69.04
895.631	78.34
895.798	81.34
895.965	75.19
896.132	78.32
896.299	75.7
896.466	77.65
896.633	75.97
896.8	59.56
896.967	79.95
897.134	75.48
897.301	74.14
897.467	84.24
897.634	78.39
897.801	74.83
897.968	77.67
898.135	79.42
898.302	76.24
898.469	72.09
898.635	74.61
898.802	68.68
898.969	74.78
899.136	74.09
899.303	76.62
