Data from transSpec_Transmission_00002.txt Node
Date: Fri May 03 15:22:15 EDT 2019
User: dh1006
Spectrometer: USB4E01358
Autoset integration time: false
Trigger mode: 4
Integration Time (sec): 6.500000E-1
Scans to average: 10
Electric dark correction enabled: true
Nonlinearity correction enabled: false
Boxcar width: 0
Stray light correction enabled: false
XAxis mode: Wavelengths
Stop averaging: false
Number of Pixels in Spectrum: 3648
>>>>>Begin Spectral Data<<<<<
176.727	18500
176.966	18500
177.205	18500
177.444	95.26
177.683	118.57
177.922	75.22
178.161	2528.57
178.4	179.32
178.638	113.48
178.877	143.12
179.116	91.79
179.355	120.53
179.593	524.61
179.832	-160.84
180.071	-1625.93
180.309	22.15
180.548	31.76
180.786	113.28
181.025	62.34
181.263	97.8
181.502	31.94
181.74	99.76
181.979	97.54
182.217	82.1
182.456	128.13
182.694	96.08
182.932	56.48
183.17	87.45
183.409	107.14
183.647	64.86
183.885	135.93
184.123	74.8
184.361	103.55
184.6	79.97
184.838	62.51
185.076	73.78
185.314	51.76
185.552	108.54
185.79	84.15
186.028	49.39
186.266	4.34
186.503	63.44
186.741	59.29
186.979	198.23
187.217	65.28
187.455	77.17
187.693	159.86
187.93	146.21
188.168	71.76
188.406	58.96
188.643	93.79
188.881	49.64
189.119	104.4
189.356	31.35
189.594	103.37
189.831	90.05
190.069	73.91
190.306	77.3
190.543	87.72
190.781	40.55
191.018	102.41
191.256	96.4
191.493	53.12
191.73	114.62
191.967	33.38
192.205	46.43
192.442	47.61
192.679	88.59
192.916	15.04
193.153	20.71
193.39	54.79
193.628	50.63
193.865	-20.78
194.102	67.36
194.339	128.58
194.576	77.36
194.813	109.95
195.049	42.2
195.286	28.02
195.523	86.04
195.76	57.37
195.997	156.19
196.234	100.69
196.47	102.16
196.707	110.87
196.944	39.39
197.18	164.29
197.417	47.83
197.654	46.96
197.89	102.56
198.127	71.16
198.363	80.51
198.6	93.72
198.836	89.43
199.073	48.25
199.309	135.31
199.546	301.1
199.782	95.41
200.018	76.97
200.255	64.37
200.491	60.29
200.727	112.79
200.963	15.07
201.199	104.19
201.436	428.95
201.672	46.23
201.908	71.13
202.144	89.51
202.38	84.27
202.616	59.12
202.852	82.09
203.088	80.65
203.324	94.56
203.56	68.88
203.796	120.75
204.032	158.64
204.268	5.28
204.503	28.07
204.739	92.93
204.975	100.51
205.211	26.47
205.446	118.12
205.682	31.65
205.918	21.75
206.153	100.62
206.389	107.06
206.625	65.59
206.86	52.48
207.096	80.8
207.331	81.66
207.567	105.59
207.802	72.59
208.037	20.41
208.273	44.27
208.508	42.99
208.744	128.78
208.979	23.57
209.214	78.01
209.449	22.41
209.685	86.12
209.92	89.58
210.155	112.47
210.39	87.12
210.625	63.07
210.86	92.57
211.095	92.6
211.33	24.94
211.565	85.09
211.8	170.3
212.035	57.74
212.27	103.19
212.505	71.67
212.74	73.33
212.975	125.32
213.21	56.61
213.444	119.62
213.679	46.75
213.914	55.69
214.149	107.03
214.383	55.84
214.618	109.84
214.853	60.22
215.087	93.5
215.322	126.87
215.556	97.15
215.791	80.45
216.025	38.34
216.26	54.93
216.494	52.54
216.729	91.01
216.963	84.67
217.197	67.36
217.432	63.16
217.666	59.65
217.9	78.64
218.135	74.21
218.369	80.66
218.603	76.72
218.837	74.07
219.071	13.36
219.306	16.08
219.54	125.69
219.774	75.86
220.008	44.56
220.242	92.37
220.476	68.66
220.71	85.13
220.944	99.7
221.178	71.48
221.411	97.04
221.645	77.61
221.879	59.6
222.113	55.78
222.347	70.31
222.58	93.18
222.814	112.16
223.048	62.66
223.281	44.38
223.515	91.33
223.749	130.56
223.982	74.52
224.216	93.53
224.449	102.97
224.683	90.72
224.916	87.15
225.15	104.58
225.383	117.36
225.617	66.95
225.85	105.06
226.083	119.61
226.317	110.71
226.55	36.69
226.783	38.12
227.016	56.84
227.25	76.3
227.483	88.12
227.716	79.39
227.949	57.02
228.182	30.54
228.415	83.64
228.648	51.41
228.881	80.21
229.114	10.93
229.347	66.96
229.58	46.91
229.813	70.26
230.046	68.52
230.279	83.99
230.512	37.81
230.745	74.14
230.977	80.84
231.21	57.32
231.443	68.45
231.675	79.09
231.908	30.1
232.141	63.54
232.373	71.48
232.606	82.38
232.839	40
233.071	47.14
233.304	71.64
233.536	53.92
233.769	75.17
234.001	341.36
234.233	32.43
234.466	94.72
234.698	86.52
234.93	70.39
235.163	63.49
235.395	75.53
235.627	65.03
235.86	48.81
236.092	103.56
236.324	101.23
236.556	171.05
236.788	100.11
237.02	203.41
237.252	84.99
237.484	31.62
237.716	75.02
237.948	75.94
238.18	66.74
238.412	70.21
238.644	64.56
238.876	79.56
239.108	98.58
239.34	49.89
239.571	102.4
239.803	60.02
240.035	102.16
240.267	62.1
240.498	93.32
240.73	97.39
240.962	82.17
241.193	22.4
241.425	95.15
241.656	64.72
241.888	89.98
242.119	82.91
242.351	63.96
242.582	147.19
242.814	60.93
243.045	45.34
243.277	133.03
243.508	78.98
243.739	55.45
243.971	111.52
244.202	50.78
244.433	68.63
244.664	92.05
244.896	18.51
245.127	53.36
245.358	76.81
245.589	51.11
245.82	58.18
246.051	78.63
246.282	80.74
246.513	62.82
246.744	92.61
246.975	90.91
247.206	74.33
247.437	83.99
247.668	74.21
247.899	73.38
248.129	92.07
248.36	53.32
248.591	26.01
248.822	22.82
249.052	143.29
249.283	76.83
249.514	36.85
249.744	95.95
249.975	75.55
250.206	68.96
250.436	60.36
250.667	136.4
250.897	78.53
251.128	56.75
251.358	97.81
251.589	88.64
251.819	102.97
252.049	51.34
252.28	60.96
252.51	44.53
252.74	63.76
252.971	70.24
253.201	93.92
253.431	80.96
253.661	154.42
253.891	64.3
254.121	92.8
254.352	49.39
254.582	107.27
254.812	26.01
255.042	80.48
255.272	-51.71
255.502	47.08
255.732	52.53
255.962	99.43
256.192	53.1
256.421	82.88
256.651	101.27
256.881	18.03
257.111	65.28
257.341	58.77
257.57	45.71
257.8	127.72
258.03	68.25
258.259	152.82
258.489	80.86
258.719	59.89
258.948	61.87
259.178	63.53
259.407	78.72
259.637	34.9
259.866	84.58
260.096	71.69
260.325	57.62
260.555	27.37
260.784	47.09
261.013	95.28
261.243	85.34
261.472	25.86
261.701	51.64
261.931	56.3
262.16	96.42
262.389	81.3
262.618	73.89
262.847	61.45
263.076	111.25
263.305	92.43
263.535	71.84
263.764	143.95
263.993	75.44
264.222	41.63
264.451	64.09
264.679	95.55
264.908	38.47
265.137	75.52
265.366	16.41
265.595	86.32
265.824	32.69
266.053	76.13
266.281	79.08
266.51	60.83
266.739	16.88
266.967	57.17
267.196	60.11
267.425	66.75
267.653	45.12
267.882	51.52
268.11	44.26
268.339	49.89
268.567	66.32
268.796	61.39
269.024	35.9
269.253	69.97
269.481	104.9
269.709	60.98
269.938	86.42
270.166	76.31
270.394	62.46
270.623	87.52
270.851	84.42
271.079	70.37
271.307	68.54
271.535	65.44
271.764	108.31
271.992	122.08
272.22	70.71
272.448	80.65
272.676	49.93
272.904	79.79
273.132	131.06
273.36	69.29
273.588	84.02
273.816	16.44
274.043	42.27
274.271	49.82
274.499	33.39
274.727	89.56
274.955	63.84
275.182	52.26
275.41	66.49
275.638	47.09
275.866	25.74
276.093	68.41
276.321	47.5
276.548	47.9
276.776	145.27
277.003	41.27
277.231	87.97
277.458	83.44
277.686	95.83
277.913	63.55
278.141	62.36
278.368	157.68
278.595	47.44
278.823	94.31
279.05	51.59
279.277	66.85
279.505	111.56
279.732	72.18
279.959	83.85
280.186	68.82
280.413	63.94
280.641	68.72
280.868	61.13
281.095	65.06
281.322	87.1
281.549	42.83
281.776	27.49
282.003	33.04
282.23	48.78
282.457	50.06
282.683	90.36
282.91	60.35
283.137	54.97
283.364	89.45
283.591	77.42
283.818	53.53
284.044	83.13
284.271	68.05
284.498	54.59
284.724	60.47
284.951	59.18
285.178	70.89
285.404	75.31
285.631	78.4
285.857	44.7
286.084	58.46
286.31	34.83
286.537	65.26
286.763	64.3
286.99	95.58
287.216	49.75
287.442	23.29
287.669	62.57
287.895	35.25
288.121	57
288.347	35.58
288.574	64.11
288.8	64.19
289.026	60.39
289.252	89.33
289.478	46.56
289.704	55.59
289.931	93.63
290.157	48.64
290.383	70.4
290.609	71.12
290.835	74.95
291.06	84.47
291.286	81.79
291.512	52.36
291.738	76.88
291.964	107.16
292.19	50.79
292.416	88.4
292.641	53.09
292.867	62.77
293.093	18.31
293.319	64.72
293.544	56.95
293.77	90.38
293.995	81.63
294.221	35.53
294.447	63.86
294.672	76.55
294.898	41.96
295.123	70.14
295.349	76.08
295.574	45.99
295.799	105.56
296.025	110.93
296.25	62.83
296.476	147.98
296.701	33.55
296.926	25.55
297.151	57.63
297.377	66.9
297.602	54.8
297.827	41.62
298.052	35.41
298.277	58.61
298.502	93.02
298.727	66.93
298.953	76.72
299.178	43.72
299.403	55.1
299.628	37.91
299.852	56.96
300.077	41.6
300.302	62.17
300.527	54.91
300.752	25.04
300.977	72.17
301.202	61.45
301.426	70.05
301.651	56.35
301.876	57.89
302.101	68.67
302.325	46.48
302.55	40.57
302.775	92.77
302.999	79.38
303.224	59.39
303.448	51.45
303.673	75.9
303.897	47.94
304.122	57.85
304.346	71.99
304.571	105.8
304.795	77.63
305.019	55.32
305.244	0.64
305.468	69.2
305.692	43.56
305.917	55.88
306.141	49.34
306.365	54.59
306.589	103.62
306.813	50.9
307.038	4.28
307.262	39.59
307.486	56.27
307.71	69.69
307.934	84.62
308.158	67.54
308.382	48.26
308.606	56.74
308.83	64.19
309.054	74.05
309.278	23.07
309.502	91.28
309.725	42.56
309.949	92.08
310.173	63.1
310.397	56.45
310.62	81.95
310.844	60.51
311.068	54.57
311.292	65.93
311.515	48.97
311.739	25.9
311.962	74.41
312.186	52.4
312.41	74.72
312.633	27.6
312.857	77.6
313.08	108.3
313.303	62.83
313.527	68
313.75	54.21
313.974	94.39
314.197	91.19
314.42	75.1
314.644	57.7
314.867	66.78
315.09	26.5
315.313	64.54
315.536	82.72
315.76	61.12
315.983	90.63
316.206	80.43
316.429	57.56
316.652	64.43
316.875	137.08
317.098	96.04
317.321	68.51
317.544	73.43
317.767	49.15
317.99	90.78
318.213	105
318.436	69.68
318.658	120.3
318.881	67.39
319.104	63.49
319.327	17.21
319.55	76.83
319.772	103.2
319.995	69.36
320.218	63.87
320.44	50.6
320.663	66.82
320.885	73.4
321.108	52.82
321.331	56.32
321.553	54.54
321.776	79.19
321.998	55.85
322.22	53.98
322.443	53.55
322.665	43.9
322.888	69.23
323.11	94.48
323.332	80.31
323.555	68.61
323.777	57.49
323.999	69.77
324.221	60.42
324.443	59.25
324.666	83.66
324.888	79.63
325.11	64.37
325.332	38.56
325.554	81.36
325.776	92.09
325.998	69.73
326.22	66.28
326.442	77.56
326.664	39.94
326.886	38.27
327.108	95.55
327.33	68.69
327.551	69.19
327.773	71.1
327.995	49.7
328.217	49.62
328.439	56.77
328.66	65.5
328.882	90.68
329.104	107.16
329.325	101.86
329.547	41.79
329.769	56.93
329.99	71.23
330.212	78.33
330.433	80.33
330.655	58.33
330.876	24.35
331.098	47.24
331.319	65.36
331.54	65.94
331.762	71.57
331.983	77.55
332.204	70.91
332.426	46.92
332.647	41.07
332.868	66.55
333.089	103.74
333.311	40.44
333.532	67.35
333.753	72.9
333.974	58.73
334.195	95.68
334.416	78.03
334.637	64.76
334.858	88.91
335.079	66.65
335.3	180.45
335.521	58.02
335.742	71.3
335.963	44.19
336.184	68.19
336.405	79.55
336.626	48.79
336.846	71.91
337.067	79.64
337.288	63.83
337.509	66.27
337.729	69.15
337.95	70.14
338.171	79.07
338.391	70.9
338.612	61.27
338.833	52.64
339.053	61.99
339.274	26.64
339.494	52.76
339.715	63.58
339.935	60.43
340.156	68.69
340.376	58.28
340.596	71.37
340.817	61.63
341.037	59.82
341.257	30.51
341.478	71.29
341.698	86
341.918	108.48
342.138	71.83
342.359	51
342.579	62.22
342.799	52.07
343.019	75.1
343.239	59.66
343.459	59.12
343.679	93.11
343.899	41.97
344.119	83.33
344.339	64.6
344.559	56.35
344.779	64.55
344.999	27.98
345.219	94.96
345.439	60.2
345.658	65.36
345.878	62.95
346.098	51.69
346.318	62.48
346.537	72.16
346.757	50.43
346.977	55.92
347.196	47.89
347.416	24.98
347.636	87.37
347.855	44.51
348.075	49.72
348.294	53
348.514	79.71
348.733	56.22
348.953	70.2
349.172	67.94
349.392	92.66
349.611	70.18
349.83	82.64
350.05	62.05
350.269	75.81
350.488	74.64
350.707	68.84
350.927	76.78
351.146	57.05
351.365	119.44
351.584	35.2
351.803	57.25
352.023	41.21
352.242	65.09
352.461	39.63
352.68	90.29
352.899	58
353.118	56.82
353.337	52.29
353.556	88.63
353.775	81.61
353.993	65.87
354.212	74.79
354.431	76.32
354.65	76.2
354.869	63.37
355.088	58.59
355.306	41.62
355.525	78.7
355.744	24.37
355.962	53.46
356.181	51.59
356.4	43.26
356.618	47.66
356.837	51.49
357.055	52.5
357.274	59.25
357.492	76.09
357.711	25.6
357.929	65.21
358.148	37.31
358.366	34.51
358.585	61.24
358.803	58.33
359.021	67.91
359.24	56.96
359.458	64.11
359.676	72.78
359.894	60.21
360.113	71.52
360.331	-7.35
360.549	26.72
360.767	49.52
360.985	51.61
361.203	55.25
361.421	61.05
361.639	49.02
361.857	46.95
362.075	89.8
362.293	46.54
362.511	65.15
362.729	87.49
362.947	45.91
363.165	36.77
363.383	42.87
363.601	70.11
363.819	39.96
364.036	37.19
364.254	66.06
364.472	55.9
364.689	73.71
364.907	67.41
365.125	86.74
365.342	73.52
365.56	55.62
365.778	59.03
365.995	62.85
366.213	54.27
366.43	43.99
366.648	93.26
366.865	70.94
367.083	74.21
367.3	46.31
367.517	68
367.735	79.24
367.952	35.85
368.17	58.82
368.387	44.46
368.604	52.65
368.821	81.72
369.039	61.97
369.256	26.46
369.473	70.66
369.69	55.74
369.907	-1.98
370.124	71.97
370.341	75.97
370.558	55.95
370.776	46.87
370.993	43.32
371.21	62.84
371.426	44.9
371.643	41.42
371.86	45.47
372.077	78.68
372.294	73.54
372.511	64.66
372.728	58.61
372.945	55.48
373.161	54.21
373.378	83.02
373.595	60.59
373.811	80.06
374.028	75.94
374.245	90.52
374.461	63.5
374.678	80.06
374.895	58.06
375.111	48.84
375.328	63.43
375.544	54.98
375.761	53.05
375.977	75.87
376.194	70.23
376.41	54.7
376.626	57.85
376.843	36.79
377.059	53.07
377.275	62.1
377.492	70.73
377.708	78.54
377.924	44.41
378.14	57.7
378.357	71.46
378.573	73.63
378.789	88.4
379.005	58.98
379.221	76.72
379.437	68.57
379.653	61.38
379.869	26.55
380.085	57.13
380.301	41.21
380.517	61.9
380.733	86.15
380.949	85.64
381.165	65.27
381.381	67.51
381.597	49.95
381.813	76.51
382.028	64.63
382.244	46.97
382.46	63.23
382.676	45.17
382.891	64.14
383.107	75.9
383.323	50.22
383.538	84.28
383.754	67.47
383.969	78.61
384.185	68.72
384.4	47.06
384.616	73.97
384.831	104.83
385.047	59.01
385.262	57.22
385.478	43.48
385.693	80.69
385.909	50.52
386.124	76.37
386.339	72.62
386.554	82.17
386.77	64.88
386.985	51.6
387.2	55.99
387.415	58.65
387.631	64.48
387.846	60.95
388.061	67.38
388.276	56.28
388.491	61.76
388.706	62.83
388.921	70.14
389.136	60.54
389.351	80.56
389.566	60.74
389.781	53.36
389.996	73.82
390.211	67.71
390.426	62.56
390.641	67.46
390.855	78.23
391.07	67.22
391.285	76.46
391.5	70.73
391.714	82.22
391.929	70.85
392.144	65.66
392.358	72.13
392.573	81.76
392.788	65.14
393.002	65.14
393.217	81.2
393.431	77.84
393.646	80.82
393.86	59.18
394.075	60.53
394.289	81.38
394.504	71.24
394.718	76.32
394.933	71.04
395.147	67.46
395.361	79.56
395.576	71.8
395.79	75.73
396.004	76.08
396.218	65.2
396.432	71.44
396.647	71.98
396.861	78.63
397.075	81.41
397.289	75.7
397.503	76.21
397.717	70.87
397.931	80.97
398.145	68.56
398.359	74.56
398.573	83.88
398.787	80.25
399.001	78.36
399.215	82.38
399.429	83.84
399.643	75.73
399.857	77.59
400.07	81.88
400.284	74.75
400.498	79.63
400.712	85.33
400.925	79.5
401.139	77.9
401.353	78.45
401.566	76.39
401.78	79.56
401.994	76.29
402.207	79.33
402.421	80.53
402.634	84.33
402.848	87.68
403.061	80.45
403.275	84.2
403.488	78.55
403.702	79.99
403.915	76.84
404.128	82.83
404.342	84.13
404.555	81.12
404.768	76.29
404.982	86.92
405.195	84.47
405.408	83.86
405.621	83.29
405.835	84.48
406.048	79.47
406.261	80.97
406.474	84.24
406.687	82.95
406.9	83
407.113	90.47
407.326	82.12
407.539	84.27
407.752	81.28
407.965	83.41
408.178	85.14
408.391	82.3
408.604	87.04
408.817	79.52
409.029	84.56
409.242	84.04
409.455	82.92
409.668	83.67
409.881	84
410.093	79.82
410.306	81.29
410.519	82.59
410.731	84.32
410.944	80.35
411.157	81.72
411.369	81.13
411.582	80.41
411.794	80.21
412.007	80.91
412.219	81.83
412.432	80.32
412.644	79.96
412.857	80.76
413.069	77.9
413.281	77.72
413.494	74.42
413.706	76.57
413.918	75.05
414.131	76.33
414.343	74.95
414.555	73.45
414.767	76.25
414.979	72.66
415.192	72.65
415.404	73.34
415.616	72.5
415.828	70.08
416.04	71.67
416.252	70.3
416.464	68.8
416.676	69.62
416.888	68.98
417.1	65.12
417.312	68.13
417.524	66.37
417.736	65.48
417.948	64.33
418.159	64.26
418.371	62.94
418.583	62.73
418.795	62.57
419.007	62.4
419.218	60.75
419.43	60.15
419.642	60.79
419.853	58.4
420.065	56.9
420.276	56.25
420.488	58.31
420.7	56.13
420.911	55.92
421.123	56.06
421.334	53.26
421.546	54.36
421.757	52.73
421.969	52.67
422.18	51.9
422.391	50.98
422.603	51.03
422.814	50.49
423.025	50.11
423.237	47.33
423.448	48.48
423.659	48.67
423.87	46.93
424.082	46.06
424.293	45.31
424.504	44.99
424.715	44.49
424.926	44.26
425.137	43.62
425.348	43
425.559	40.5
425.77	42.42
425.981	40.13
426.192	41.24
426.403	39.08
426.614	38.09
426.825	36.6
427.036	38.11
427.247	37.6
427.458	36.04
427.668	35.87
427.879	36.31
428.09	36.44
428.301	33.85
428.511	33.78
428.722	33.61
428.933	31.77
429.143	32.09
429.354	30.99
429.565	31.86
429.775	31.29
429.986	31.17
430.196	30.84
430.407	30.69
430.617	30.65
430.828	29.64
431.038	28.64
431.249	28.8
431.459	27.91
431.669	27.22
431.88	27.33
432.09	27.31
432.3	26.86
432.511	26.91
432.721	26
432.931	25.43
433.141	26.07
433.351	26.27
433.562	23.63
433.772	24.92
433.982	25.41
434.192	24.26
434.402	23.33
434.612	23.59
434.822	23.09
435.032	22.13
435.242	22.23
435.452	22.83
435.662	20.51
435.872	22.09
436.082	21.14
436.292	22.88
436.502	19.74
436.711	19.02
436.921	20.1
437.131	20.41
437.341	20.88
437.551	19.79
437.76	19.01
437.97	19.83
438.18	20.3
438.389	19.71
438.599	18.26
438.808	18.81
439.018	19.34
439.228	18.52
439.437	19.2
439.647	17.49
439.856	18.09
440.066	19.17
440.275	17.04
440.484	17.65
440.694	17.8
440.903	15.9
441.113	16.34
441.322	16.81
441.531	15.61
441.741	15.23
441.95	15.98
442.159	16.08
442.368	16.63
442.577	15.09
442.787	16.21
442.996	15.66
443.205	16.08
443.414	15.93
443.623	16.29
443.832	14.4
444.041	15.08
444.25	14.49
444.459	15.46
444.668	15.45
444.877	15.44
445.086	14.26
445.295	15.6
445.504	15.11
445.713	14.07
445.922	15.88
446.13	12.48
446.339	14.84
446.548	13.96
446.757	15.28
446.965	13.2
447.174	12.59
447.383	14.55
447.591	14.13
447.8	12.59
448.009	13.62
448.217	13.58
448.426	13.29
448.634	12.39
448.843	12.76
449.051	13.79
449.26	12.56
449.468	13.22
449.677	12.33
449.885	13.15
450.093	12.39
450.302	11.88
450.51	12.7
450.719	13.17
450.927	12.59
451.135	12.34
451.343	11.31
451.552	11.03
451.76	12.51
451.968	12.14
452.176	10.88
452.384	10.85
452.592	13.06
452.8	12
453.009	12.73
453.217	11.31
453.425	11.26
453.633	12.53
453.841	11.81
454.049	11.34
454.257	11.81
454.464	11.47
454.672	12.44
454.88	10.45
455.088	11.06
455.296	11.33
455.504	10.7
455.711	11.2
455.919	12.79
456.127	10.02
456.335	10.38
456.542	11.63
456.75	10.23
456.958	10.86
457.165	10.99
457.373	10.25
457.581	11.49
457.788	11.17
457.996	12.46
458.203	11.34
458.411	11.71
458.618	13.32
458.826	11.72
459.033	10.27
459.24	10.75
459.448	10.79
459.655	11.91
459.863	11.96
460.07	12.15
460.277	11.36
460.484	11.22
460.692	10.12
460.899	11.71
461.106	11.4
461.313	11.13
461.52	10.86
461.728	11
461.935	10.79
462.142	11.63
462.349	11.5
462.556	10.85
462.763	10.8
462.97	11.68
463.177	10.73
463.384	9.65
463.591	10.31
463.798	11.26
464.005	10.35
464.212	11.02
464.418	9.87
464.625	11.38
464.832	9.81
465.039	10.63
465.246	11.04
465.452	11.1
465.659	10.69
465.866	10.93
466.072	9.84
466.279	11.55
466.486	12.1
466.692	11.33
466.899	10.15
467.105	10.85
467.312	11.27
467.519	11.18
467.725	11.77
467.931	9.54
468.138	11.91
468.344	11.32
468.551	10.68
468.757	11.19
468.964	11.32
469.17	10.84
469.376	11.13
469.583	12.09
469.789	10.38
469.995	10.47
470.201	10.79
470.408	11.12
470.614	10.49
470.82	10.07
471.026	11.37
471.232	11.39
471.438	10.29
471.644	10.95
471.85	10.98
472.056	10.89
472.262	11.5
472.468	10.87
472.674	11.43
472.88	11.79
473.086	11.39
473.292	11.53
473.498	11.79
473.704	11.38
473.91	11.61
474.116	11.25
474.321	11.31
474.527	10.58
474.733	11.21
474.939	10.65
475.144	11.89
475.35	11.48
475.556	12.03
475.761	10.89
475.967	10.85
476.173	11.25
476.378	11.88
476.584	12.07
476.789	11.3
476.995	11.85
477.2	11.46
477.406	11.84
477.611	11.72
477.817	11.75
478.022	12.35
478.227	12.41
478.433	11.31
478.638	11.94
478.843	12.33
479.049	11.14
479.254	11.84
479.459	12.08
479.664	11.97
479.87	12.58
480.075	12.42
480.28	12.21
480.485	12.48
480.69	12.67
480.895	12.59
481.1	12.29
481.306	12.52
481.511	13.19
481.716	12.32
481.921	13.07
482.126	12.82
482.33	13.41
482.535	13.08
482.74	13.16
482.945	13.41
483.15	13.17
483.355	13.81
483.56	14.2
483.765	13.46
483.969	13.64
484.174	13.84
484.379	13.97
484.583	14.15
484.788	14.52
484.993	14.58
485.197	15.35
485.402	14.33
485.607	15.11
485.811	15.14
486.016	15.29
486.22	15
486.425	15.49
486.629	15.3
486.834	15.42
487.038	15.96
487.243	15.87
487.447	15.55
487.652	16.02
487.856	15.6
488.06	16.23
488.265	16.65
488.469	16.89
488.673	16.9
488.877	17.16
489.082	17.14
489.286	17.73
489.49	17.74
489.694	17.5
489.898	17.91
490.102	17.27
490.307	18
490.511	18.03
490.715	18.34
490.919	18.9
491.123	18.91
491.327	18.76
491.531	19.1
491.735	19.23
491.939	19.4
492.143	19.5
492.346	19.92
492.55	19.99
492.754	20.67
492.958	20.82
493.162	20.52
493.366	20.87
493.569	21.65
493.773	22.04
493.977	22.16
494.18	22.2
494.384	22.42
494.588	22.64
494.791	23.2
494.995	23.12
495.199	23.04
495.402	23.87
495.606	23.54
495.809	24.82
496.013	24.35
496.216	25
496.42	25.64
496.623	25.98
496.827	26.45
497.03	26.48
497.233	26.6
497.437	27.35
497.64	27.09
497.843	28.06
498.047	28.14
498.25	28.48
498.453	29.03
498.656	29.12
498.86	29.62
499.063	30.2
499.266	30.78
499.469	31.51
499.672	31.55
499.875	32.52
500.078	32.75
500.281	33.19
500.484	33.55
500.687	34.57
500.89	35.03
501.093	35.64
501.296	35.91
501.499	36.19
501.702	36.61
501.905	37.69
502.108	37.77
502.311	38.78
502.514	39.04
502.716	40.36
502.919	40.53
503.122	40.72
503.325	41.7
503.527	42.23
503.73	42.91
503.933	44.23
504.135	44.66
504.338	45.67
504.541	45.74
504.743	46.63
504.946	47.31
505.148	48.04
505.351	48.19
505.553	49.14
505.756	50.81
505.958	51.46
506.161	52.24
506.363	52.61
506.565	54.5
506.768	54.87
506.97	56.13
507.172	56.64
507.375	57.49
507.577	58.21
507.779	59.44
507.982	60.01
508.184	60.42
508.386	62.13
508.588	62.77
508.79	63.12
508.993	64.01
509.195	64.83
509.397	65.99
509.599	66.58
509.801	67.31
510.003	69.38
510.205	70.26
510.407	70.02
510.609	71.62
510.811	71.98
511.013	72.99
511.215	73.38
511.417	74.16
511.618	75.33
511.82	76.48
512.022	77.07
512.224	77.45
512.426	78.38
512.627	78.4
512.829	79.36
513.031	80.37
513.233	80.95
513.434	81.54
513.636	80.93
513.838	81.87
514.039	82.74
514.241	82.82
514.442	83.05
514.644	82.83
514.845	84.07
515.047	83.55
515.248	83.47
515.45	83.67
515.651	83.59
515.853	84.58
516.054	84.74
516.256	84.69
516.457	84.14
516.658	83.94
516.86	84.28
517.061	84.07
517.262	84
517.463	83.98
517.665	82.69
517.866	82.62
518.067	82.25
518.268	80.89
518.469	81.75
518.67	80.78
518.872	81.1
519.073	80.55
519.274	80.77
519.475	79.77
519.676	79.21
519.877	77.98
520.078	76.51
520.279	75.94
520.48	75.11
520.681	74.35
520.881	73.62
521.082	72.72
521.283	72.39
521.484	71.34
521.685	71.27
521.886	69.98
522.086	69.09
522.287	67.94
522.488	67.64
522.689	66.4
522.889	65.46
523.09	64.37
523.291	64.22
523.491	62.53
523.692	61.9
523.892	61.13
524.093	59.8
524.294	59.84
524.494	58.84
524.695	58.62
524.895	57.42
525.096	55.91
525.296	56.05
525.496	54.53
525.697	53.53
525.897	52.8
526.098	52.1
526.298	51.26
526.498	50.2
526.699	50.01
526.899	49.66
527.099	49.87
527.299	48.63
527.499	47.54
527.7	46.96
527.9	46.6
528.1	45.78
528.3	45.11
528.5	44.73
528.7	44.16
528.9	43.36
529.1	42.1
529.3	41.88
529.5	41.24
529.7	40.69
529.9	40.63
530.1	40.12
530.3	39.24
530.5	38.37
530.7	37.53
530.9	37
531.1	37.04
531.3	36.54
531.499	36.31
531.699	35.18
531.899	34.94
532.099	34.34
532.298	33.86
532.498	33.73
532.698	33.25
532.897	32.66
533.097	32.05
533.297	31.71
533.496	31.37
533.696	31.07
533.895	30.85
534.095	30.24
534.294	29.8
534.494	29.15
534.693	28.71
534.893	28.52
535.092	28.19
535.292	28.04
535.491	27.63
535.69	27.11
535.89	26.63
536.089	26.66
536.288	26.69
536.488	25.92
536.687	25.99
536.886	25.69
537.085	25.14
537.285	25.05
537.484	24.56
537.683	24.57
537.882	24.21
538.081	23.85
538.28	23.77
538.479	23.66
538.678	23.26
538.877	22.94
539.076	22.59
539.275	22.55
539.474	21.88
539.673	21.44
539.872	21.44
540.071	21.28
540.27	21.38
540.469	21.19
540.668	20.78
540.867	20.52
541.065	20.36
541.264	20.06
541.463	19.99
541.662	19.6
541.861	19.51
542.059	19.41
542.258	19.18
542.457	18.98
542.655	19.14
542.854	18.9
543.052	18.47
543.251	18.53
543.45	18.22
543.648	18.01
543.847	17.83
544.045	17.93
544.244	17.57
544.442	17.42
544.641	17.14
544.839	17.13
545.037	16.79
545.236	16.85
545.434	16.7
545.632	16.43
545.831	16.25
546.029	16.25
546.227	16.21
546.426	15.96
546.624	15.8
546.822	15.89
547.02	15.5
547.218	15.49
547.417	15.22
547.615	15.41
547.813	15.1
548.011	15.03
548.209	15.01
548.407	14.65
548.605	14.64
548.803	14.76
549.001	14.47
549.199	14.37
549.397	14.42
549.595	14.29
549.793	14.14
549.991	14.13
550.189	13.99
550.387	14.08
550.584	13.66
550.782	13.7
550.98	13.57
551.178	13.51
551.376	13.34
551.573	13.3
551.771	13.35
551.969	13.42
552.166	13.19
552.364	13.02
552.562	12.99
552.759	12.88
552.957	12.65
553.154	12.75
553.352	12.61
553.55	12.65
553.747	12.38
553.945	12.57
554.142	12.53
554.339	12.62
554.537	12.49
554.734	12.32
554.932	12.32
555.129	12.25
555.326	12.01
555.524	12.11
555.721	11.94
555.918	11.82
556.116	11.62
556.313	11.8
556.51	11.62
556.707	11.57
556.904	11.39
557.102	11.47
557.299	11.46
557.496	11.49
557.693	11.17
557.89	11.16
558.087	11.24
558.284	11.2
558.481	11.07
558.678	11.08
558.875	11.07
559.072	11.03
559.269	10.69
559.466	10.83
559.663	10.65
559.86	10.72
560.057	10.63
560.254	10.56
560.45	10.51
560.647	10.69
560.844	10.79
561.041	10.72
561.237	10.69
561.434	10.52
561.631	10.56
561.828	10.52
562.024	10.38
562.221	10.29
562.418	10.25
562.614	10.4
562.811	10.32
563.007	10.26
563.204	10.26
563.4	10.3
563.597	10.25
563.793	10.16
563.99	10.02
564.186	10.11
564.383	10.01
564.579	10.1
564.775	9.83
564.972	9.98
565.168	9.85
565.365	10
565.561	9.82
565.757	9.8
565.953	9.87
566.15	9.75
566.346	9.95
566.542	9.83
566.738	9.8
566.934	9.92
567.131	9.76
567.327	9.7
567.523	9.74
567.719	9.68
567.915	9.74
568.111	9.71
568.307	9.54
568.503	9.53
568.699	9.44
568.895	9.58
569.091	9.55
569.287	9.74
569.483	9.44
569.679	9.64
569.875	9.45
570.07	9.37
570.266	9.59
570.462	9.43
570.658	9.35
570.854	9.42
571.049	9.23
571.245	9.37
571.441	9.39
571.636	9.24
571.832	9.32
572.028	9.3
572.223	9.32
572.419	9.29
572.615	9.23
572.81	9.26
573.006	9.23
573.201	9.28
573.397	9.26
573.592	9.26
573.788	9.06
573.983	9.14
574.179	9.08
574.374	9.06
574.569	9
574.765	9.06
574.96	8.98
575.156	8.97
575.351	9.04
575.546	9.14
575.741	9.06
575.937	9.02
576.132	9.03
576.327	9.12
576.522	8.99
576.718	9.01
576.913	8.99
577.108	8.97
577.303	8.95
577.498	9.06
577.693	9.07
577.888	9.06
578.083	9.09
578.278	9.15
578.473	9.04
578.668	9.07
578.863	9.08
579.058	9.1
579.253	8.99
579.448	9.01
579.643	8.78
579.838	8.84
580.033	8.86
580.227	8.98
580.422	8.87
580.617	8.86
580.812	8.85
581.006	8.84
581.201	8.98
581.396	8.84
581.591	8.91
581.785	8.92
581.98	8.91
582.175	9.05
582.369	8.92
582.564	8.84
582.758	8.98
582.953	8.99
583.147	9.04
583.342	9.02
583.536	9
583.731	9.11
583.925	9.03
584.12	9.04
584.314	8.91
584.509	9.06
584.703	9.05
584.897	8.99
585.092	9.05
585.286	9.13
585.48	9.09
585.674	8.98
585.869	9.24
586.063	9.06
586.257	8.99
586.451	8.99
586.646	9.03
586.84	8.99
587.034	8.94
587.228	8.95
587.422	9.17
587.616	9.02
587.81	9.17
588.004	9.11
588.198	9.14
588.392	9.14
588.586	9.08
588.78	9.05
588.974	9.09
589.168	9.15
589.362	9.09
589.556	9.1
589.75	9
589.944	9.16
590.137	9.06
590.331	9.06
590.525	9.25
590.719	9.16
590.913	9.12
591.106	9.15
591.3	9.26
591.494	9.25
591.687	9.26
591.881	9.36
592.075	9.27
592.268	9.32
592.462	9.22
592.655	9.32
592.849	9.2
593.043	9.35
593.236	9.23
593.43	9.28
593.623	9.25
593.817	9.4
594.01	9.35
594.203	9.37
594.397	9.55
594.59	9.46
594.784	9.55
594.977	9.48
595.17	9.51
595.364	9.55
595.557	9.57
595.75	9.69
595.943	9.59
596.137	9.59
596.33	9.61
596.523	9.69
596.716	9.6
596.909	9.8
597.102	9.76
597.296	9.84
597.489	9.72
597.682	9.61
597.875	9.66
598.068	9.89
598.261	9.85
598.454	9.89
598.647	9.85
598.84	9.98
599.033	9.94
599.226	10.07
599.419	9.95
599.611	10.08
599.804	10.28
599.997	10.07
600.19	10.05
600.383	10.12
600.576	10.11
600.768	10.16
600.961	10.2
601.154	10.32
601.347	10.33
601.539	10.36
601.732	10.41
601.925	10.38
602.117	10.39
602.31	10.41
602.502	10.31
602.695	10.36
602.888	10.38
603.08	10.38
603.273	10.43
603.465	10.57
603.658	10.48
603.85	10.62
604.043	10.61
604.235	10.81
604.427	10.87
604.62	10.82
604.812	10.83
605.004	10.88
605.197	10.9
605.389	10.94
605.581	11.03
605.774	10.78
605.966	10.97
606.158	11.01
606.35	10.78
606.543	10.97
606.735	11.03
606.927	10.96
607.119	11.09
607.311	11.11
607.503	11.2
607.695	11.11
607.887	11.15
608.079	11.33
608.271	11.24
608.463	11.19
608.655	11.27
608.847	11.38
609.039	11.25
609.231	11.53
609.423	11.51
609.615	11.57
609.807	11.59
609.999	11.72
610.191	11.87
610.382	11.81
610.574	11.66
610.766	12.01
610.958	11.83
611.15	11.84
611.341	11.85
611.533	12
611.725	12.03
611.916	12.05
612.108	12.1
612.3	12.19
612.491	12.05
612.683	12.11
612.874	12.2
613.066	12.18
613.257	12.21
613.449	12.19
613.64	12.27
613.832	12.37
614.023	12.35
614.215	12.44
614.406	12.49
614.598	12.63
614.789	12.71
614.98	12.57
615.172	12.71
615.363	12.63
615.554	12.81
615.746	12.76
615.937	12.98
616.128	12.98
616.319	12.97
616.511	13.07
616.702	13.06
616.893	13.26
617.084	13.25
617.275	13.23
617.466	13.22
617.658	13.29
617.849	13.47
618.04	13.45
618.231	13.59
618.422	13.57
618.613	13.75
618.804	13.8
618.995	13.8
619.186	13.86
619.377	13.83
619.568	13.87
619.758	13.97
619.949	13.89
620.14	14.08
620.331	14.03
620.522	14.2
620.713	14.21
620.903	14.24
621.094	14.41
621.285	14.53
621.476	14.52
621.666	14.44
621.857	14.57
622.048	14.56
622.238	14.5
622.429	14.68
622.62	14.86
622.81	14.8
623.001	15.13
623.191	15.24
623.382	15.15
623.572	15.41
623.763	15.23
623.953	15.49
624.144	15.5
624.334	15.42
624.525	15.63
624.715	15.71
624.905	15.91
625.096	15.88
625.286	16
625.477	16.03
625.667	16.07
625.857	16.1
626.047	16.43
626.238	16.35
626.428	16.45
626.618	16.45
626.808	16.68
626.999	16.72
627.189	16.9
627.379	16.99
627.569	17.04
627.759	17.07
627.949	17.25
628.139	17.07
628.329	17.27
628.519	17.22
628.709	17.43
628.899	17.53
629.089	17.58
629.279	17.57
629.469	17.73
629.659	17.83
629.849	17.93
630.039	17.82
630.229	18.22
630.419	18.29
630.609	18.29
630.798	18.45
630.988	18.4
631.178	18.55
631.368	18.56
631.557	18.57
631.747	18.64
631.937	18.73
632.127	19
632.316	19.08
632.506	19.03
632.696	19.14
632.885	19.25
633.075	19.33
633.264	19.62
633.454	19.57
633.643	19.78
633.833	19.88
634.022	20
634.212	20.05
634.401	20.4
634.591	20.4
634.78	20.46
634.97	20.45
635.159	20.53
635.348	20.5
635.538	20.56
635.727	20.64
635.916	20.75
636.106	20.8
636.295	20.87
636.484	21.22
636.674	21.2
636.863	21.49
637.052	21.54
637.241	21.72
637.43	22.05
637.619	22.04
637.809	22.39
637.998	22.35
638.187	22.41
638.376	22.62
638.565	22.6
638.754	22.73
638.943	22.74
639.132	22.82
639.321	22.99
639.51	23.27
639.699	23.51
639.888	23.72
640.077	24.16
640.266	24.28
640.455	24.24
640.643	24.39
640.832	24.3
641.021	24.33
641.21	24.33
641.399	24.37
641.587	24.59
641.776	24.88
641.965	24.99
642.154	25.08
642.342	25.15
642.531	25.35
642.72	25.35
642.908	25.48
643.097	25.66
643.286	26.16
643.474	26.27
643.663	26.42
643.851	26.62
644.04	26.71
644.228	26.85
644.417	27.05
644.605	27.29
644.794	27.51
644.982	27.65
645.171	27.8
645.359	27.95
645.547	27.95
645.736	27.99
645.924	27.96
646.112	28.24
646.301	28.3
646.489	28.54
646.677	28.48
646.866	28.78
647.054	29
647.242	29.34
647.43	29.49
647.618	29.57
647.807	29.72
647.995	29.65
648.183	29.72
648.371	30.05
648.559	30.55
648.747	30.65
648.935	30.75
649.123	30.95
649.311	31.04
649.499	31.15
649.687	31.31
649.875	31.61
650.063	31.79
650.251	32.13
650.439	32.13
650.627	32.17
650.815	32.2
651.003	32.38
651.191	32.63
651.378	32.89
651.566	33.02
651.754	33.47
651.942	33.76
652.13	33.84
652.317	33.73
652.505	34.19
652.693	34.38
652.88	34.35
653.068	34.68
653.256	34.95
653.443	35.24
653.631	35.2
653.819	35.34
654.006	35.89
654.194	36.05
654.381	36
654.569	36.12
654.756	36.51
654.944	36.88
655.131	37.33
655.319	37.26
655.506	37.1
655.693	37.22
655.881	37.3
656.068	37.69
656.256	38.29
656.443	38.56
656.63	38.96
656.818	38.91
657.005	39.34
657.192	39.33
657.379	39.54
657.567	39.83
657.754	40.26
657.941	40.31
658.128	40.66
658.315	40.64
658.502	40.71
658.69	40.95
658.877	41.33
659.064	41.38
659.251	41.94
659.438	42.23
659.625	42.63
659.812	43.04
659.999	43.2
660.186	43.7
660.373	43.84
660.56	43.84
660.747	44.25
660.934	44.23
661.121	44.38
661.308	44.47
661.494	44.95
661.681	44.87
661.868	45.26
662.055	45.22
662.242	45.88
662.428	45.81
662.615	46.21
662.802	46
662.989	46.33
663.175	46.44
663.362	46.89
663.549	46.96
663.735	47.53
663.922	48.01
664.109	48.63
664.295	49
664.482	49.33
664.668	49.32
664.855	49.77
665.041	49.58
665.228	49.69
665.414	49.63
665.601	49.84
665.787	49.97
665.974	50.42
666.16	50.91
666.347	50.97
666.533	51.23
666.719	51.35
666.906	51.99
667.092	52.33
667.278	52.83
667.465	52.93
667.651	53.12
667.837	53.24
668.023	53.59
668.21	54.1
668.396	54.31
668.582	54.73
668.768	54.84
668.954	55.26
669.14	55.61
669.327	55.99
669.513	56.35
669.699	56.76
669.885	56.58
670.071	57.02
670.257	57.41
670.443	57.45
670.629	57.38
670.815	58.02
671.001	57.96
671.187	58.45
671.373	58.73
671.559	59.3
671.744	59.42
671.93	59.75
672.116	60.54
672.302	60.53
672.488	60.74
672.674	60.78
672.859	60.83
673.045	60.96
673.231	61.27
673.417	61.54
673.602	61.86
673.788	62.45
673.974	62.76
674.159	63.15
674.345	63.6
674.531	64.14
674.716	64.13
674.902	64.85
675.087	65.16
675.273	65.43
675.459	65.2
675.644	65.78
675.83	66.29
676.015	66.22
676.2	66.34
676.386	66.48
676.571	66.58
676.757	66.89
676.942	66.74
677.128	67.04
677.313	67.79
677.498	67.93
677.684	68.41
677.869	68.69
678.054	69.15
678.24	69.14
678.425	69.31
678.61	69.52
678.795	69.86
678.98	69.91
679.166	70.06
679.351	70.05
679.536	70.16
679.721	70.78
679.906	70.92
680.091	71.28
680.276	71.69
680.461	72.12
680.647	72.7
680.832	72.63
681.017	72.68
681.202	72.7
681.387	72.36
681.572	72.54
681.756	72.77
681.941	72.95
682.126	73.77
682.311	74.15
682.496	74.23
682.681	74.39
682.866	74.82
683.051	75.55
683.235	75.48
683.42	75.11
683.605	75.53
683.79	76.11
683.974	76.44
684.159	77.1
684.344	77.11
684.529	77.31
684.713	76.94
684.898	77.24
685.083	77.84
685.267	78.42
685.452	78.35
685.636	78.44
685.821	78.36
686.005	78.39
686.19	78.06
686.375	78.64
686.559	78.95
686.744	79.11
686.928	79.64
687.112	80.71
687.297	80.5
687.481	80.21
687.666	80.11
687.85	80.22
688.034	80.2
688.219	80.52
688.403	80.34
688.587	80.21
688.772	80.66
688.956	80.83
689.14	81.29
689.324	81.57
689.509	82.08
689.693	82.32
689.877	81.72
690.061	81.76
690.245	81.4
690.43	81.38
690.614	81.69
690.798	82.03
690.982	82.02
691.166	82.31
691.35	82.52
691.534	83.07
691.718	83.34
691.902	83.12
692.086	82.84
692.27	83.41
692.454	83.2
692.638	83.21
692.822	82.74
693.006	83.11
693.19	83.34
693.373	83.62
693.557	83.56
693.741	84.56
693.925	84.58
694.109	84.89
694.293	84.7
694.476	84.93
694.66	85.48
694.844	86.01
695.027	86.26
695.211	86.23
695.395	86.5
695.578	86.7
695.762	86.76
695.946	86.57
696.129	86.29
696.313	86.68
696.497	86.52
696.68	86.67
696.864	86.25
697.047	86.64
697.231	87.12
697.414	87.34
697.598	87.43
697.781	87.47
697.965	88.35
698.148	88.88
698.331	88.66
698.515	88.74
698.698	88.6
698.881	88.04
699.065	88.27
699.248	88.25
699.431	87.95
699.615	88.01
699.798	87.8
699.981	87.63
700.165	87.83
700.348	88.29
700.531	88.34
700.714	88.54
700.897	88.08
701.08	89.13
701.264	88.92
701.447	88.34
701.63	88.22
701.813	87.8
701.996	87.62
702.179	87.67
702.362	88.68
702.545	88.77
702.728	88.36
702.911	88.35
703.094	88.16
703.277	88.79
703.46	89.16
703.643	89.23
703.826	89.29
704.009	89.6
704.191	90.22
704.374	90.94
704.557	90.49
704.74	89.85
704.923	90.06
705.106	89.66
705.288	89.38
705.471	88.78
705.654	88.65
705.837	89.78
706.019	90.06
706.202	90.49
706.385	90.72
706.567	90.41
706.75	90.37
706.932	90.31
707.115	90.34
707.298	90.09
707.48	90.1
707.663	89.95
707.845	89.95
708.028	90.38
708.21	90.09
708.393	89.92
708.575	90.02
708.758	89.87
708.94	89.77
709.123	89.86
709.305	89.75
709.487	89.93
709.67	89.46
709.852	89.08
710.034	89.26
710.217	89.11
710.399	89.43
710.581	89.95
710.764	90.14
710.946	89.96
711.128	89.59
711.31	89.88
711.492	88.8
711.675	89.24
711.857	89.84
712.039	90.05
712.221	90
712.403	90.01
712.585	89.96
712.767	89.77
712.949	90.35
713.131	90.49
713.314	90.44
713.496	89.83
713.678	90.5
713.86	89.99
714.041	90.15
714.223	90.49
714.405	91.4
714.587	91.03
714.769	91.3
714.951	90.75
715.133	90.76
715.315	91.39
715.497	91.87
715.678	91.71
715.86	90.84
716.042	90
716.224	89.44
716.406	89.38
716.587	89.25
716.769	89.58
716.951	88.95
717.132	89.74
717.314	89.78
717.496	89.97
717.677	90.18
717.859	90.21
718.041	90.19
718.222	90.15
718.404	90.54
718.585	90.67
718.767	90.34
718.948	90.24
719.13	90.46
719.311	90.4
719.493	90.97
719.674	90.34
719.856	90.62
720.037	90.72
720.219	90.49
720.4	89.98
720.581	89.64
720.763	88.85
720.944	88.43
721.125	88.06
721.307	87.99
721.488	87.9
721.669	88.26
721.85	88.86
722.032	88.61
722.213	89.67
722.394	89.66
722.575	89.31
722.756	89.74
722.938	90.25
723.119	89.43
723.3	89.58
723.481	89.21
723.662	89.42
723.843	88.73
724.024	88.3
724.205	88.33
724.386	88.09
724.567	88.38
724.748	88.51
724.929	88.36
725.11	88.11
725.291	88.24
725.472	88.1
725.653	88.41
725.834	87.93
726.015	88.36
726.196	89.87
726.377	89.76
726.557	89.63
726.738	89.44
726.919	89.17
727.1	88.92
727.281	88.63
727.461	88.58
727.642	88.51
727.823	88.18
728.004	88.93
728.184	88.65
728.365	88.28
728.546	88.04
728.726	87.99
728.907	87.93
729.087	88.36
729.268	88.05
729.449	88.21
729.629	88
729.81	87.3
729.99	86.98
730.171	87.3
730.351	87.36
730.532	88.4
730.712	87.75
730.893	87.91
731.073	87.46
731.253	87.4
731.434	87.67
731.614	87.55
731.795	87.52
731.975	87.68
732.155	88.02
732.336	88.16
732.516	88.05
732.696	87.54
732.876	87.66
733.057	87.34
733.237	87.42
733.417	87.4
733.597	87.82
733.778	88.08
733.958	88.1
734.138	87.02
734.318	86.81
734.498	86.85
734.678	86.99
734.858	86.29
735.038	86.75
735.218	87.24
735.398	87.7
735.579	87.67
735.759	87.89
735.939	88.25
736.119	88.19
736.298	87.87
736.478	87.27
736.658	86.83
736.838	87.6
737.018	88.12
737.198	87.93
737.378	87.53
737.558	87.51
737.738	86.84
737.917	86.62
738.097	86.08
738.277	86.51
738.457	87.38
738.637	86.95
738.816	86.96
738.996	87.33
739.176	88.07
739.355	87.49
739.535	87.13
739.715	86.92
739.894	86.45
740.074	87
740.254	87.77
740.433	87.35
740.613	87.24
740.792	87.1
740.972	87.47
741.151	86.96
741.331	87.01
741.51	86.53
741.69	86.32
741.869	86.64
742.049	86.32
742.228	86.65
742.408	86.54
742.587	86.57
742.766	86.33
742.946	85.76
743.125	85.73
743.305	86.3
743.484	86.19
743.663	87.08
743.842	86.02
744.022	85.73
744.201	86.06
744.38	85.35
744.56	84.88
744.739	85.1
744.918	85.38
745.097	85.61
745.276	85.45
745.455	86.05
745.635	86.3
745.814	86.13
745.993	86.57
746.172	86.12
746.351	87
746.53	86.5
746.709	86.69
746.888	86.71
747.067	86.59
747.246	86.63
747.425	85.84
747.604	86.08
747.783	86.37
747.962	85.33
748.141	86.04
748.32	86.12
748.499	86.32
748.677	86.43
748.856	86.94
749.035	87.41
749.214	86.74
749.393	87.14
749.572	86.48
749.75	86.37
749.929	86.7
750.108	86.45
750.287	86.4
750.465	86.98
750.644	86.85
750.823	86.17
751.001	86.43
751.18	86.46
751.359	87.14
751.537	87.33
751.716	87.11
751.894	87.26
752.073	87.43
752.251	87.53
752.43	87.55
752.609	87.48
752.787	87.76
752.966	87.92
753.144	86.68
753.322	87.25
753.501	86.1
753.679	85.65
753.858	85.59
754.036	85.62
754.215	86.43
754.393	87.67
754.571	86.93
754.75	87.03
754.928	87.45
755.106	87.65
755.284	87.77
755.463	87.61
755.641	86.41
755.819	85.93
755.997	85.88
756.176	85.54
756.354	86.57
756.532	87.43
756.71	86.69
756.888	87.58
757.066	87.18
757.245	86.37
757.423	86.73
757.601	86.88
757.779	86.77
757.957	86.71
758.135	86.61
758.313	86.96
758.491	87.96
758.669	87.3
758.847	87.57
759.025	86.89
759.203	86.97
759.381	87.67
759.559	87.37
759.737	87.42
759.915	88.09
760.092	87.77
760.27	86.69
760.448	87.48
760.626	87.15
760.804	86.85
760.981	86.57
761.159	86.81
761.337	87.15
761.515	86.98
761.692	87.15
761.87	86.9
762.048	86.96
762.226	86.98
762.403	87.79
762.581	88.49
762.759	87.58
762.936	87.12
763.114	86.82
763.291	86.6
763.469	86.3
763.647	87.2
763.824	86.81
764.002	87.47
764.179	87.79
764.357	88.05
764.534	86.85
764.712	87.9
764.889	88.29
765.066	87.46
765.244	88.03
765.421	87.65
765.599	87.72
765.776	87.42
765.953	88.55
766.131	88.43
766.308	88.09
766.485	88.08
766.663	87.96
766.84	87.28
767.017	87.66
767.194	87.64
767.372	87.97
767.549	87.67
767.726	87.35
767.903	87.98
768.081	87.94
768.258	88.72
768.435	87.27
768.612	86.81
768.789	86.24
768.966	87.45
769.143	86.82
769.32	87.34
769.497	87.61
769.674	86.76
769.851	86.84
770.028	86.49
770.205	87.19
770.382	86.21
770.559	87.03
770.736	87.59
770.913	86.67
771.09	87.03
771.267	87.08
771.444	87.79
771.621	89.13
771.798	89.62
771.975	88.91
772.151	88.28
772.328	88.54
772.505	88.48
772.682	88.63
772.859	87.49
773.035	87.59
773.212	86.68
773.389	87.02
773.565	87.4
773.742	88.58
773.919	89.17
774.096	89.42
774.272	88.44
774.449	87.2
774.625	88.05
774.802	87.07
774.979	87.39
775.155	87.7
775.332	88.21
775.508	88.16
775.685	88.53
775.861	88.61
776.038	87.75
776.214	87.43
776.391	88.14
776.567	88.27
776.744	87.68
776.92	88.31
777.096	88.19
777.273	88.59
777.449	88.44
777.626	88.86
777.802	88.56
777.978	88.22
778.155	89.24
778.331	89.45
778.507	88.27
778.683	88.44
778.86	87.52
779.036	87.79
779.212	88.61
779.388	88.16
779.565	88.93
779.741	88.94
779.917	89.85
780.093	89.65
780.269	87.09
780.445	88.99
780.621	86.51
780.797	88.74
780.974	88.18
781.15	88.9
781.326	90.01
781.502	88.91
781.678	88.87
781.854	88.86
782.03	88.33
782.206	88.32
782.382	87
782.558	87.75
782.733	87.5
782.909	87.28
783.085	87.44
783.261	87.2
783.437	87.24
783.613	88.07
783.789	87.84
783.965	88.13
784.14	88.95
784.316	88.36
784.492	87.49
784.668	87.96
784.843	87.83
785.019	89.15
785.195	87.65
785.371	87.99
785.546	88.7
785.722	89.41
785.898	89.05
786.073	89.14
786.249	89.49
786.424	87.84
786.6	89.57
786.776	88.5
786.951	88.15
787.127	87.9
787.302	87.85
787.478	88.13
787.653	87.12
787.829	88.75
788.004	87.67
788.18	87.85
788.355	88.78
788.531	88.23
788.706	88.61
788.881	90.39
789.057	89.26
789.232	89.11
789.408	89.94
789.583	88.78
789.758	89.93
789.934	88.22
790.109	88.12
790.284	87.49
790.459	88.03
790.635	87.55
790.81	89.11
790.985	88.41
791.16	87.2
791.336	87.34
791.511	86.63
791.686	87.93
791.861	88.01
792.036	89.13
792.211	89.56
792.387	88.24
792.562	89.98
792.737	88.57
792.912	88.47
793.087	87.5
793.262	88.01
793.437	88.09
793.612	89.58
793.787	87.46
793.962	89.33
794.137	87.14
794.312	89.89
794.487	89.79
794.662	90.95
794.837	88.54
795.011	89.76
795.186	88.7
795.361	88.27
795.536	89.57
795.711	88.11
795.886	89.35
796.06	87.72
796.235	86.44
796.41	87.87
796.585	88
796.76	88.04
796.934	86.53
797.109	86.78
797.284	87.81
797.458	87.17
797.633	87.98
797.808	86.97
797.982	88.43
798.157	86.58
798.332	87.35
798.506	85.38
798.681	87.46
798.855	87.96
799.03	86.8
799.204	88.31
799.379	86.66
799.553	87.69
799.728	87.42
799.902	88.73
800.077	86.87
800.251	87.41
800.426	86.8
800.6	86.59
800.775	88.91
800.949	87.22
801.123	88.5
801.298	87.02
801.472	88.71
801.647	88.45
801.821	88.2
801.995	86.14
802.169	88.82
802.344	86.5
802.518	87.98
802.692	84.78
802.867	86.26
803.041	87.42
803.215	86.06
803.389	86.05
803.563	89.2
803.737	84.59
803.912	85.4
804.086	85.82
804.26	84.81
804.434	86.48
804.608	87.97
804.782	86.26
804.956	86.19
805.13	84.52
805.304	86.5
805.478	85.69
805.652	85.02
805.826	84.69
806	83.23
806.174	85.54
806.348	83.03
806.522	86.91
806.696	88.91
806.87	88.26
807.044	86.08
807.218	86.01
807.392	85
807.566	83.74
807.739	84.8
807.913	83.62
808.087	84.41
808.261	84.15
808.435	84.81
808.608	85.65
808.782	86.76
808.956	88.33
809.13	87.3
809.303	83.36
809.477	83.39
809.651	83.93
809.824	84.57
809.998	84.65
810.172	86.73
810.345	85.66
810.519	85.31
810.692	85.85
810.866	86.51
811.04	87.99
811.213	84.43
811.387	86.47
811.56	86.43
811.734	85.02
811.907	86.67
812.081	85.43
812.254	85.6
812.428	86.18
812.601	85.29
812.774	85.36
812.948	85.74
813.121	84.37
813.295	83.97
813.468	86.48
813.641	86.15
813.815	85.34
813.988	86.08
814.161	85.95
814.335	82.48
814.508	84.57
814.681	85.52
814.854	83.98
815.028	85.88
815.201	84.2
815.374	83.24
815.547	84.01
815.72	83.83
815.894	85.72
816.067	84.3
816.24	79.56
816.413	84.68
816.586	82.16
816.759	82.66
816.932	82.21
817.105	85.13
817.278	84.54
817.452	83.44
817.625	83.48
817.798	85.22
817.971	84.37
818.144	83.97
818.317	84.96
818.49	82.31
818.662	85.61
818.835	84.76
819.008	82.46
819.181	84.45
819.354	82.39
819.527	84.47
819.7	84.34
819.873	85.78
820.046	83.69
820.218	84.27
820.391	81.49
820.564	84.93
820.737	82.43
820.909	83.09
821.082	82.31
821.255	81.37
821.428	82.61
821.6	84.75
821.773	82.78
821.946	84.16
822.118	83.63
822.291	82.82
822.464	82.21
822.636	81.91
822.809	82.76
822.982	82.16
823.154	82.11
823.327	83.35
823.499	80.15
823.672	80.53
823.844	81.89
824.017	81.72
824.189	82.2
824.362	80.64
824.534	80.85
824.707	81.88
824.879	83.07
825.052	84.01
825.224	83.98
825.396	84.36
825.569	82.93
825.741	81.04
825.914	84.85
826.086	81.58
826.258	82.24
826.431	83.45
826.603	82.01
826.775	82
826.947	83.52
827.12	82.18
827.292	83.73
827.464	84.17
827.636	83.84
827.809	82.39
827.981	83.13
828.153	81.37
828.325	80.12
828.497	80.89
828.669	82.59
828.842	81.21
829.014	83.16
829.186	84.78
829.358	82.02
829.53	81.85
829.702	84.9
829.874	81.17
830.046	83.41
830.218	82.01
830.39	82.32
830.562	82.77
830.734	79.76
830.906	81.9
831.078	86.57
831.25	84.23
831.422	82.98
831.594	83.45
831.766	83.6
831.937	83.25
832.109	84.73
832.281	80.6
832.453	86.78
832.625	84.86
832.797	84.59
832.968	82.26
833.14	84.17
833.312	82.65
833.484	84.84
833.655	82.35
833.827	82.13
833.999	83.77
834.171	82.92
834.342	83.88
834.514	84.13
834.686	81.39
834.857	81.54
835.029	84.1
835.2	81.68
835.372	80.64
835.544	80.62
835.715	84.61
835.887	80.56
836.058	83.69
836.23	83.6
836.401	81.34
836.573	80.5
836.744	82.25
836.916	82.91
837.087	80.27
837.259	82.34
837.43	81.03
837.602	83.21
837.773	81.04
837.945	82.31
838.116	81.85
838.287	80.46
838.459	81.91
838.63	80.31
838.801	83.13
838.973	82.43
839.144	81.13
839.315	80.09
839.487	79.61
839.658	81.32
839.829	81.47
840	79.35
840.172	80.57
840.343	77.9
840.514	79.34
840.685	79.39
840.856	80.33
841.027	78.51
841.199	79.98
841.37	80.07
841.541	79.73
841.712	79.5
841.883	79.59
842.054	79.27
842.225	78.37
842.396	78.94
842.567	79.55
842.738	80.21
842.909	76.91
843.08	80.07
843.251	80.03
843.422	79.69
843.593	78.11
843.764	81.12
843.935	79.51
844.106	79.38
844.277	79.36
844.448	78.49
844.619	79.4
844.79	81.57
844.96	79.71
845.131	79.51
845.302	80.4
845.473	79.91
845.644	83.2
845.814	82.72
845.985	77.89
846.156	80.82
846.327	79.75
846.497	79.85
846.668	81.27
846.839	80.46
847.01	80.9
847.18	79.05
847.351	82.42
847.522	81
847.692	79.74
847.863	79.44
848.033	80.3
848.204	78.86
848.375	79.65
848.545	79.57
848.716	75.69
848.886	80.13
849.057	78.53
849.227	77.21
849.398	78.11
849.568	79.8
849.739	78.15
849.909	82.51
850.08	77.67
850.25	77.49
850.421	79.94
850.591	78.31
850.761	79.66
850.932	79.94
851.102	79.3
851.272	80.14
851.443	78.41
851.613	77.73
851.783	78.06
851.954	78.23
852.124	80.36
852.294	76.52
852.465	79
852.635	76.14
852.805	76.48
852.975	77.31
853.145	78.53
853.316	72.47
853.486	77.16
853.656	76.03
853.826	75.81
853.996	73.12
854.166	74.99
854.337	77.25
854.507	74.12
854.677	72.87
854.847	73.58
855.017	75.16
855.187	75.28
855.357	79.96
855.527	75.51
855.697	76.95
855.867	77.4
856.037	75
856.207	75.42
856.377	75.56
856.547	76.19
856.717	78.41
856.887	78.65
857.057	80.37
857.227	77.21
857.397	77.94
857.566	76.92
857.736	77.09
857.906	76.56
858.076	80.09
858.246	74.68
858.416	76.06
858.585	78.19
858.755	79.31
858.925	74.62
859.095	79.74
859.264	77
859.434	77.42
859.604	75.71
859.774	75.67
859.943	78.01
860.113	74.73
860.283	72.25
860.452	75.64
860.622	80.36
860.791	75.27
860.961	76.72
861.131	77.7
861.3	72.67
861.47	76.72
861.639	76.21
861.809	75.54
861.978	74.87
862.148	68.84
862.318	73.28
862.487	77.62
862.657	76.39
862.826	78.01
862.995	81.41
863.165	78.43
863.334	73.97
863.504	78.29
863.673	78.93
863.843	77.99
864.012	76.65
864.181	75.54
864.351	72.83
864.52	75.14
864.689	77.68
864.859	74.09
865.028	74.65
865.197	76.39
865.366	78.23
865.536	77.93
865.705	75.34
865.874	76.03
866.043	72.09
866.213	76.83
866.382	79.66
866.551	71.49
866.72	75.25
866.889	73.93
867.059	76.88
867.228	73.39
867.397	73.16
867.566	75.99
867.735	80.26
867.904	76.6
868.073	74.99
868.242	81.93
868.411	76.01
868.58	81.05
868.749	78.39
868.918	76.68
869.087	78.82
869.256	70.14
869.425	79.85
869.594	77.21
869.763	78.93
869.932	77.45
870.101	72.66
870.27	75.85
870.439	70.86
870.608	76.07
870.777	77.09
870.945	76.88
871.114	73.6
871.283	77.87
871.452	72.94
871.621	76.74
871.789	71.62
871.958	73.09
872.127	76
872.296	73.07
872.464	78.72
872.633	78.65
872.802	79.15
872.971	76.98
873.139	75.23
873.308	78.59
873.477	74.15
873.645	71.77
873.814	77.31
873.983	81.5
874.151	71.6
874.32	73.58
874.488	80.11
874.657	78.53
874.826	74.22
874.994	76.29
875.163	76.86
875.331	71.94
875.5	75.83
875.668	79.41
875.837	73.4
876.005	77.63
876.174	74.4
876.342	73.7
876.51	76.63
876.679	72.5
876.847	76.63
877.016	82.86
877.184	75.17
877.352	74.38
877.521	80.8
877.689	70.38
877.857	78.13
878.026	79.08
878.194	76.01
878.362	69.57
878.531	72.93
878.699	74.94
878.867	78.91
879.036	79.86
879.204	78.47
879.372	72.66
879.54	72.46
879.708	78.66
879.877	77.35
880.045	77.41
880.213	69.63
880.381	74.38
880.549	81.98
880.717	74.36
880.885	76.02
881.054	71.06
881.222	76.33
881.39	74.67
881.558	75.06
881.726	75.68
881.894	78.97
882.062	73.01
882.23	74.04
882.398	75.05
882.566	74.65
882.734	77.13
882.902	74.59
883.07	75.47
883.238	77.44
883.406	70.43
883.574	72.08
883.741	78.57
883.909	74.36
884.077	77.66
884.245	73.9
884.413	73.99
884.581	82.92
884.749	78.61
884.916	68.62
885.084	79.09
885.252	71.2
885.42	75.12
885.587	72.06
885.755	69.75
885.923	73.32
886.091	71.86
886.258	67.07
886.426	72.69
886.594	74.26
886.761	72.63
886.929	77.64
887.097	73.06
887.264	71.2
887.432	78.16
887.6	68.37
887.767	71.01
887.935	71.93
888.102	75.05
888.27	74.25
888.438	81.8
888.605	73.14
888.773	73.52
888.94	71.76
889.108	73.07
889.275	78.65
889.443	78.58
889.61	76.28
889.778	80.07
889.945	78.65
890.112	70.58
890.28	69.39
890.447	72.9
890.615	73.56
890.782	74.88
890.949	70.34
891.117	74.76
891.284	78.54
891.452	78.25
891.619	71.39
891.786	77.24
891.953	73.35
892.121	74.19
892.288	76.43
892.455	75.68
892.623	73.61
892.79	78.42
892.957	71.23
893.124	71.24
893.291	70.13
893.459	69.63
893.626	70.23
893.793	70.64
893.96	72.83
894.127	77.5
894.294	77.7
894.461	72.13
894.629	68.51
894.796	83.77
894.963	70.19
895.13	74.79
895.297	73.32
895.464	69.24
895.631	77.77
895.798	72.73
895.965	71.19
896.132	82.86
896.299	73.87
896.466	77.48
896.633	82.08
896.8	77.59
896.967	77.2
897.134	80.09
897.301	69.45
897.467	83.62
897.634	78.72
897.801	70.3
897.968	82.9
898.135	75.04
898.302	65.48
898.469	73.83
898.635	70.91
898.802	59.06
898.969	70.43
899.136	69.4
899.303	74.77
