Data from 2019-05-04_Transmission_20-17-44-441.txt Node
Date: Sat May 04 20:17:44 EDT 2019
User: dh1006
Spectrometer: USB4E01358
Autoset integration time: false
Trigger mode: 4
Integration Time (sec): 1.000000E-1
Scans to average: 10
Electric dark correction enabled: true
Nonlinearity correction enabled: false
Boxcar width: 0
Stray light correction enabled: false
XAxis mode: Wavelengths
Stop averaging: false
Number of Pixels in Spectrum: 3648
>>>>>Begin Spectral Data<<<<<
176.727	154.72
176.966	154.72
177.205	154.72
177.444	29.81
177.683	35.7
177.922	23.69
178.161	6.82
178.4	-15.19
178.638	66.57
178.877	353.85
179.116	158.56
179.355	73.16
179.593	24.03
179.832	461.32
180.071	-158.12
180.309	-10.99
180.548	-120.71
180.786	82.28
181.025	48.84
181.263	76.1
181.502	60.1
181.74	54.49
181.979	157.94
182.217	105.78
182.456	31.84
182.694	97.64
182.932	44.35
183.17	77.57
183.409	94.25
183.647	62.41
183.885	40.74
184.123	64.52
184.361	111.69
184.6	98.75
184.838	50.09
185.076	61.15
185.314	75.39
185.552	49.65
185.79	132.23
186.028	96.46
186.266	74.44
186.503	64.6
186.741	51.61
186.979	78.43
187.217	105.25
187.455	85.49
187.693	57.96
187.93	46.01
188.168	42.23
188.406	57.4
188.643	76.15
188.881	79.89
189.119	79.98
189.356	80.03
189.594	69.28
189.831	107.06
190.069	50.15
190.306	64.59
190.543	72.7
190.781	80.31
191.018	52.47
191.256	41.83
191.493	60.98
191.73	73.28
191.967	57.93
192.205	92.17
192.442	35.04
192.679	30.09
192.916	89.54
193.153	93.96
193.39	60.94
193.628	99.96
193.865	82.08
194.102	92.43
194.339	92.83
194.576	59.47
194.813	108.45
195.049	49.7
195.286	46.15
195.523	77.61
195.76	74.63
195.997	111.95
196.234	80.65
196.47	88.69
196.707	105.84
196.944	73.26
197.18	61.27
197.417	68.15
197.654	109.13
197.89	62.01
198.127	100.8
198.363	79.31
198.6	62.82
198.836	76.39
199.073	93.16
199.309	57.89
199.546	61
199.782	82.1
200.018	97.33
200.255	87.44
200.491	69.11
200.727	117.43
200.963	57.93
201.199	52.62
201.436	99.52
201.672	114.17
201.908	40.87
202.144	53.85
202.38	60.27
202.616	78.34
202.852	70.58
203.088	70.29
203.324	81.33
203.56	33.71
203.796	87.06
204.032	80.29
204.268	105.13
204.503	83.72
204.739	73.89
204.975	53.85
205.211	72.76
205.446	51.01
205.682	54.13
205.918	86.14
206.153	0.43
206.389	60.34
206.625	101.81
206.86	64.33
207.096	76.42
207.331	88.18
207.567	45.38
207.802	94.89
208.037	97.84
208.273	81.95
208.508	87.55
208.744	88.43
208.979	57.27
209.214	85.48
209.449	126.09
209.685	53.21
209.92	78.17
210.155	20.91
210.39	71.04
210.625	57.65
210.86	85.04
211.095	74.66
211.33	69.26
211.565	69.31
211.8	60.52
212.035	104.4
212.27	72.13
212.505	53.31
212.74	90.41
212.975	139.67
213.21	84.79
213.444	116.44
213.679	90.01
213.914	65.41
214.149	83.47
214.383	67.94
214.618	71.94
214.853	84.98
215.087	64.54
215.322	81.45
215.556	55.28
215.791	116.02
216.025	85.23
216.26	89.85
216.494	66.03
216.729	75.84
216.963	63.59
217.197	42
217.432	99.46
217.666	12.14
217.9	52.64
218.135	37.14
218.369	36.52
218.603	73.64
218.837	71.73
219.071	53.92
219.306	147.52
219.54	60.12
219.774	56.98
220.008	149.73
220.242	108.88
220.476	57.85
220.71	47.35
220.944	65.93
221.178	97.25
221.411	24.21
221.645	75.87
221.879	62.36
222.113	74.75
222.347	134.63
222.58	83.37
222.814	39.48
223.048	61.58
223.281	52.75
223.515	78.79
223.749	77.07
223.982	102.62
224.216	102.98
224.449	54.68
224.683	86.76
224.916	96.09
225.15	76.24
225.383	119.15
225.617	94.84
225.85	89.5
226.083	82.86
226.317	79.71
226.55	77.88
226.783	56.45
227.016	33.41
227.25	64.9
227.483	96
227.716	113.56
227.949	50.72
228.182	90.13
228.415	54.48
228.648	74.17
228.881	79.42
229.114	51.26
229.347	51.1
229.58	88.38
229.813	65.02
230.046	77.86
230.279	88.8
230.512	72.81
230.745	60.32
230.977	62.55
231.21	79.31
231.443	68.02
231.675	66.64
231.908	83.32
232.141	73.12
232.373	74.31
232.606	47.97
232.839	91.65
233.071	68.02
233.304	21.43
233.536	84
233.769	67.35
234.001	101.53
234.233	97.26
234.466	83.15
234.698	72.59
234.93	64.62
235.163	94.99
235.395	46.23
235.627	77.23
235.86	114.73
236.092	112.84
236.324	64.63
236.556	43.9
236.788	65.91
237.02	113.6
237.252	78.41
237.484	112.34
237.716	93.85
237.948	75.94
238.18	29.67
238.412	75.85
238.644	65.15
238.876	47.7
239.108	91.57
239.34	85.81
239.571	76.32
239.803	59.47
240.035	72.2
240.267	101.7
240.498	93.37
240.73	80.67
240.962	104.16
241.193	112.04
241.425	70.12
241.656	31.01
241.888	89.82
242.119	85.15
242.351	62.16
242.582	86.16
242.814	74.77
243.045	96.05
243.277	35.88
243.508	60.75
243.739	133.84
243.971	45.75
244.202	53.27
244.433	73.53
244.664	93.38
244.896	35.57
245.127	64
245.358	106.64
245.589	110.09
245.82	38.26
246.051	64.12
246.282	39.62
246.513	97.02
246.744	73.94
246.975	122.24
247.206	81.2
247.437	38.04
247.668	66.88
247.899	60.11
248.129	77.99
248.36	89.78
248.591	70.24
248.822	55.83
249.052	84.29
249.283	25.74
249.514	38.09
249.744	94.42
249.975	50.55
250.206	70.76
250.436	47.47
250.667	46.29
250.897	78.3
251.128	15.83
251.358	62
251.589	71.99
251.819	78.53
252.049	85.95
252.28	56.12
252.51	69.4
252.74	50.8
252.971	68.64
253.201	73.48
253.431	74.78
253.661	46.11
253.891	95.84
254.121	79.46
254.352	67.25
254.582	90.06
254.812	82.12
255.042	128.35
255.272	41.86
255.502	62.57
255.732	61.04
255.962	64.68
256.192	39.81
256.421	36.79
256.651	113.03
256.881	48.68
257.111	56.38
257.341	42.47
257.57	32.26
257.8	49.05
258.03	84.79
258.259	42.69
258.489	43.98
258.719	58.11
258.948	55.11
259.178	33.5
259.407	51.45
259.637	53.91
259.866	67.26
260.096	86.99
260.325	63.87
260.555	74.03
260.784	66.56
261.013	79.32
261.243	72.15
261.472	78.26
261.701	98.1
261.931	41.63
262.16	69.94
262.389	116.15
262.618	76.44
262.847	92.45
263.076	45.39
263.305	59.47
263.535	79.24
263.764	70.82
263.993	64.57
264.222	123.21
264.451	51.89
264.679	57.89
264.908	108.98
265.137	96.68
265.366	165.45
265.595	101.23
265.824	72.75
266.053	59.29
266.281	75.53
266.51	100.6
266.739	92.8
266.967	61.68
267.196	74.2
267.425	55.72
267.653	40.45
267.882	70.99
268.11	105.45
268.339	69.28
268.567	63.42
268.796	37.32
269.024	55.28
269.253	36.53
269.481	78.79
269.709	90.08
269.938	33.04
270.166	60.29
270.394	81.6
270.623	72.26
270.851	48.02
271.079	52.38
271.307	89.66
271.535	67.41
271.764	67.6
271.992	57.89
272.22	54.43
272.448	57.16
272.676	81.86
272.904	62.91
273.132	44.38
273.36	68.4
273.588	73.88
273.816	87.66
274.043	72.81
274.271	73.02
274.499	108.94
274.727	68.43
274.955	72.58
275.182	54.51
275.41	94.22
275.638	59.05
275.866	61.62
276.093	56.92
276.321	92.82
276.548	55.89
276.776	62.4
277.003	54.75
277.231	33.38
277.458	69
277.686	79.54
277.913	98.19
278.141	81.82
278.368	65.03
278.595	59.15
278.823	75.15
279.05	59.39
279.277	54.65
279.505	120.4
279.732	43.38
279.959	69.34
280.186	96.9
280.413	77.24
280.641	78.88
280.868	86.71
281.095	56.52
281.322	75.18
281.549	70.61
281.776	72.51
282.003	100.39
282.23	75.28
282.457	66.91
282.683	47.44
282.91	65.15
283.137	91.52
283.364	79.46
283.591	112.51
283.818	60.14
284.044	55.85
284.271	53.14
284.498	64.83
284.724	68.75
284.951	68.36
285.178	78.84
285.404	64.02
285.631	127.83
285.857	90.33
286.084	55.45
286.31	76.55
286.537	75.23
286.763	72.67
286.99	72.36
287.216	86.65
287.442	51
287.669	114.67
287.895	51.49
288.121	66.78
288.347	74.93
288.574	96.12
288.8	43.48
289.026	62.81
289.252	71.57
289.478	74.45
289.704	108.21
289.931	74.85
290.157	89.57
290.383	76.51
290.609	89.58
290.835	49.86
291.06	88.22
291.286	62.75
291.512	81.53
291.738	84.22
291.964	76.16
292.19	64.47
292.416	74.98
292.641	66.19
292.867	23.84
293.093	74.2
293.319	66.99
293.544	73.28
293.77	61.3
293.995	103.85
294.221	69.5
294.447	35.6
294.672	70.87
294.898	74.63
295.123	80.08
295.349	53.94
295.574	88.44
295.799	88.51
296.025	55.87
296.25	46.49
296.476	54.42
296.701	106.14
296.926	67.86
297.151	60.43
297.377	117.77
297.602	90.74
297.827	62.54
298.052	81.67
298.277	97.47
298.502	69.16
298.727	71.76
298.953	75.45
299.178	100.95
299.403	74.27
299.628	85.45
299.852	79.18
300.077	35.42
300.302	70.91
300.527	55.83
300.752	88.05
300.977	72.99
301.202	75.04
301.426	83.48
301.651	46.15
301.876	105.81
302.101	77.39
302.325	71.21
302.55	84.45
302.775	80.81
302.999	37.73
303.224	45.03
303.448	100.55
303.673	100.56
303.897	73.82
304.122	86.92
304.346	77.13
304.571	73.87
304.795	76.12
305.019	44.31
305.244	54.07
305.468	57.39
305.692	60.25
305.917	79.22
306.141	92.14
306.365	82.98
306.589	44.62
306.813	80.6
307.038	92.57
307.262	47.62
307.486	64.78
307.71	91.79
307.934	66.53
308.158	60.88
308.382	84.92
308.606	87.79
308.83	75.76
309.054	65.46
309.278	48.12
309.502	66.21
309.725	48.89
309.949	72.62
310.173	53.36
310.397	69.88
310.62	71.38
310.844	66.43
311.068	129.84
311.292	72.97
311.515	84.99
311.739	86.98
311.962	51.57
312.186	74.64
312.41	128.8
312.633	65.69
312.857	88.03
313.08	61.72
313.303	65.81
313.527	76.53
313.75	56.68
313.974	77.09
314.197	74.31
314.42	80.2
314.644	65.46
314.867	68.88
315.09	48.5
315.313	89.86
315.536	66.25
315.76	31.39
315.983	97.37
316.206	45.56
316.429	60.47
316.652	48.22
316.875	71.93
317.098	75.2
317.321	58.1
317.544	87.1
317.767	63.39
317.99	93.16
318.213	91.19
318.436	56.39
318.658	87.69
318.881	64.38
319.104	58.63
319.327	65.11
319.55	84.75
319.772	18.69
319.995	44.04
320.218	64.57
320.44	54.55
320.663	80.93
320.885	61.98
321.108	72.87
321.331	32.5
321.553	107.33
321.776	48.27
321.998	70.96
322.22	46.38
322.443	64.26
322.665	67.49
322.888	87.03
323.11	66.98
323.332	65.25
323.555	78.73
323.777	86.89
323.999	69.89
324.221	83.75
324.443	66.24
324.666	88.23
324.888	66.22
325.11	83.18
325.332	30.24
325.554	50.86
325.776	61.42
325.998	74.34
326.22	93.39
326.442	82.84
326.664	64.5
326.886	105.57
327.108	77.17
327.33	70.92
327.551	60.81
327.773	96.45
327.995	39.73
328.217	69.42
328.439	95.48
328.66	96.05
328.882	84.73
329.104	79.22
329.325	68.98
329.547	94.19
329.769	72.05
329.99	54.31
330.212	73.33
330.433	66.32
330.655	88.31
330.876	93.28
331.098	62.71
331.319	71.18
331.54	95.32
331.762	65.85
331.983	67.92
332.204	93.9
332.426	64.37
332.647	45.28
332.868	85.37
333.089	82.27
333.311	101.23
333.532	86.72
333.753	69.81
333.974	91.75
334.195	91.95
334.416	51.84
334.637	68.57
334.858	43.37
335.079	65.77
335.3	43.63
335.521	55.87
335.742	67.28
335.963	53.22
336.184	51.48
336.405	58.27
336.626	48.06
336.846	59.85
337.067	62.37
337.288	61.05
337.509	82.26
337.729	72.09
337.95	38.37
338.171	61.39
338.391	65.14
338.612	55.93
338.833	64.4
339.053	68.97
339.274	88.72
339.494	47.69
339.715	75.15
339.935	59.94
340.156	54.11
340.376	60.16
340.596	58.82
340.817	37.34
341.037	62.89
341.257	67.66
341.478	87.44
341.698	98.54
341.918	84.02
342.138	47.46
342.359	81.64
342.579	82.9
342.799	56.11
343.019	70.64
343.239	71.61
343.459	60.43
343.679	64.45
343.899	46.07
344.119	32.64
344.339	43.98
344.559	80.95
344.779	61.93
344.999	62.15
345.219	69.88
345.439	96.74
345.658	71.05
345.878	70.14
346.098	61.02
346.318	54.87
346.537	58.71
346.757	70.51
346.977	43.37
347.196	74.7
347.416	83.59
347.636	53.23
347.855	56.54
348.075	51.27
348.294	51.6
348.514	52.88
348.733	70.54
348.953	69.29
349.172	28.89
349.392	56.33
349.611	76.44
349.83	59.53
350.05	51.15
350.269	81.97
350.488	49.26
350.707	59.87
350.927	60.78
351.146	92.43
351.365	66.35
351.584	44.07
351.803	68.16
352.023	63.47
352.242	69.22
352.461	101.83
352.68	63.15
352.899	82.57
353.118	80.07
353.337	81.84
353.556	91.28
353.775	51.86
353.993	76.66
354.212	56.2
354.431	79.48
354.65	75.63
354.869	52.82
355.088	80.1
355.306	108.97
355.525	45.44
355.744	74.12
355.962	96.87
356.181	73.06
356.4	103.73
356.618	80.92
356.837	49.41
357.055	79.58
357.274	81.98
357.492	68.78
357.711	47.31
357.929	53.95
358.148	46.98
358.366	41.82
358.585	64.5
358.803	52.32
359.021	61.6
359.24	52.53
359.458	69.15
359.676	58.58
359.894	82.53
360.113	44.24
360.331	70.58
360.549	46.68
360.767	65.66
360.985	66.2
361.203	76.92
361.421	48.52
361.639	57.05
361.857	75.82
362.075	55.71
362.293	54.62
362.511	72.11
362.729	47.96
362.947	73.14
363.165	56.82
363.383	84.62
363.601	68.47
363.819	63.44
364.036	95.44
364.254	54.04
364.472	69.02
364.689	63.21
364.907	44.6
365.125	67.94
365.342	100.78
365.56	61.87
365.778	55.37
365.995	75.49
366.213	65.44
366.43	62.75
366.648	75.54
366.865	60.15
367.083	62.86
367.3	62.26
367.517	80.94
367.735	76.7
367.952	54.73
368.17	58.84
368.387	49.5
368.604	40.45
368.821	63.99
369.039	60.25
369.256	90.75
369.473	67.47
369.69	63.42
369.907	64.06
370.124	110.83
370.341	70.71
370.558	44.83
370.776	63.77
370.993	59.26
371.21	59.17
371.426	76.28
371.643	81.72
371.86	64.03
372.077	77.09
372.294	82.24
372.511	60.81
372.728	66.78
372.945	61.59
373.161	76.02
373.378	69.69
373.595	67.32
373.811	55.5
374.028	75.9
374.245	70.97
374.461	76.82
374.678	46.27
374.895	75.82
375.111	41.04
375.328	76.85
375.544	78.28
375.761	66.21
375.977	75.96
376.194	90.97
376.41	47.44
376.626	53.7
376.843	53.58
377.059	64.62
377.275	79.61
377.492	67.7
377.708	75.7
377.924	77.65
378.14	62.92
378.357	79.68
378.573	73.72
378.789	75.81
379.005	70.94
379.221	86.91
379.437	51.15
379.653	64.43
379.869	78.27
380.085	71.14
380.301	68.57
380.517	73.91
380.733	69.51
380.949	68.29
381.165	58.81
381.381	71.31
381.597	46.6
381.813	81.08
382.028	66.06
382.244	60.14
382.46	69.61
382.676	78.98
382.891	54.06
383.107	64.01
383.323	59.82
383.538	71.73
383.754	52.53
383.969	82.14
384.185	72.32
384.4	73.71
384.616	48.88
384.831	82.92
385.047	55.18
385.262	74.09
385.478	62.15
385.693	64.35
385.909	38.59
386.124	54.8
386.339	43.55
386.554	48.7
386.77	73.56
386.985	66.84
387.2	43.91
387.415	47.78
387.631	61.53
387.846	46.98
388.061	56.58
388.276	62.22
388.491	58.02
388.706	48.52
388.921	55.88
389.136	68.44
389.351	51.53
389.566	38.41
389.781	52.66
389.996	58.9
390.211	31.94
390.426	49.19
390.641	57.37
390.855	47.86
391.07	48.92
391.285	46.96
391.5	57.9
391.714	58.51
391.929	37.33
392.144	32.47
392.358	41.19
392.573	49.13
392.788	54.36
393.002	48.14
393.217	26.67
393.431	37.4
393.646	40.08
393.86	43.8
394.075	36.25
394.289	50.03
394.504	57.16
394.718	33.12
394.933	49.99
395.147	33.96
395.361	32.93
395.576	43.44
395.79	32.97
396.004	34.46
396.218	33.44
396.432	42.8
396.647	34.75
396.861	36.08
397.075	32.76
397.289	28.85
397.503	38.45
397.717	35.91
397.931	37.01
398.145	30.26
398.359	36.28
398.573	35.82
398.787	31.9
399.001	32.77
399.215	35.68
399.429	28.66
399.643	31.72
399.857	35.31
400.07	31.67
400.284	36.6
400.498	30.39
400.712	34.74
400.925	32.02
401.139	23.17
401.353	32.78
401.566	27.32
401.78	29.35
401.994	30.12
402.207	23.42
402.421	25.19
402.634	29.43
402.848	26.01
403.061	25.99
403.275	25.79
403.488	27.06
403.702	25
403.915	32.31
404.128	18.45
404.342	19.77
404.555	22.98
404.768	28
404.982	26.21
405.195	25.46
405.408	22.33
405.621	22.59
405.835	20.04
406.048	19.26
406.261	22.5
406.474	22.2
406.687	21.36
406.9	21.94
407.113	15.28
407.326	17.55
407.539	20.13
407.752	16.23
407.965	17.49
408.178	17.63
408.391	23.5
408.604	16.21
408.817	16.66
409.029	19.96
409.242	17.63
409.455	14.4
409.668	16.15
409.881	14.95
410.093	15.05
410.306	16.87
410.519	15.66
410.731	16.95
410.944	15.58
411.157	14.23
411.369	15.91
411.582	15.94
411.794	14.76
412.007	16.06
412.219	13.99
412.432	16.14
412.644	13.46
412.857	16.42
413.069	13.85
413.281	14.69
413.494	14.47
413.706	14.14
413.918	14.3
414.131	15.11
414.343	13.84
414.555	12.91
414.767	14.32
414.979	13.48
415.192	14
415.404	15.89
415.616	14.39
415.828	14.86
416.04	12.82
416.252	13.83
416.464	12.77
416.676	12.77
416.888	14.48
417.1	11.66
417.312	13.79
417.524	12.49
417.736	13.17
417.948	12.58
418.159	14.31
418.371	11.85
418.583	12.35
418.795	10.89
419.007	13.35
419.218	12.45
419.43	11.91
419.642	14.73
419.853	11.84
420.065	12.59
420.276	12.97
420.488	12.66
420.7	12.5
420.911	11.57
421.123	11.51
421.334	12.57
421.546	11.32
421.757	11.68
421.969	12.1
422.18	10.6
422.391	11.34
422.603	13.21
422.814	11.5
423.025	11.31
423.237	11.58
423.448	10.93
423.659	11.31
423.87	11.48
424.082	11.71
424.293	10.9
424.504	11.32
424.715	10.81
424.926	11.24
425.137	12.42
425.348	11.71
425.559	11.45
425.77	11.4
425.981	11.18
426.192	12.77
426.403	10.43
426.614	10.36
426.825	11.76
427.036	11.27
427.247	10.87
427.458	11.56
427.668	11.64
427.879	11.64
428.09	11.65
428.301	10.36
428.511	11.69
428.722	12.45
428.933	10.41
429.143	12.27
429.354	11.8
429.565	10.68
429.775	10.52
429.986	11.79
430.196	10.19
430.407	12.95
430.617	10.59
430.828	12
431.038	11.51
431.249	12.38
431.459	12.36
431.669	13.75
431.88	12.01
432.09	12.19
432.3	11.85
432.511	10.84
432.721	11.69
432.931	13.2
433.141	12.08
433.351	12.93
433.562	10.68
433.772	12.65
433.982	12.42
434.192	10.83
434.402	11.64
434.612	10.91
434.822	11.37
435.032	11.89
435.242	12.99
435.452	11.9
435.662	11.31
435.872	13.69
436.082	14.12
436.292	12.96
436.502	12.73
436.711	13.41
436.921	12.77
437.131	12.03
437.341	12.29
437.551	11.74
437.76	13.43
437.97	11.1
438.18	13.47
438.389	13.71
438.599	12.3
438.808	14.69
439.018	13.35
439.228	13.34
439.437	13.83
439.647	13.2
439.856	14.29
440.066	13.96
440.275	14.53
440.484	12.19
440.694	14.16
440.903	14.02
441.113	14
441.322	13.53
441.531	14.43
441.741	15.25
441.95	14.13
442.159	14.53
442.368	15.16
442.577	15.69
442.787	15.92
442.996	13.29
443.205	15.78
443.414	15.89
443.623	15.93
443.832	15.25
444.041	16.13
444.25	16.29
444.459	15.8
444.668	16.3
444.877	16
445.086	16.11
445.295	15.94
445.504	15.44
445.713	16.68
445.922	17.49
446.13	17.94
446.339	17.74
446.548	16.31
446.757	17.91
446.965	18.17
447.174	18.79
447.383	18.28
447.591	18.04
447.8	18.01
448.009	18.74
448.217	20.21
448.426	20.38
448.634	19.2
448.843	18.37
449.051	19.49
449.26	20.11
449.468	19.7
449.677	19.79
449.885	19.68
450.093	18.72
450.302	20.71
450.51	22.81
450.719	20.98
450.927	21.89
451.135	21.65
451.343	22.3
451.552	22.85
451.76	22.6
451.968	22.84
452.176	22.9
452.384	23.42
452.592	24.55
452.8	24.8
453.009	24.4
453.217	25.43
453.425	25.81
453.633	24.15
453.841	24.6
454.049	25.3
454.257	26.2
454.464	27.22
454.672	27.94
454.88	28.38
455.088	27.52
455.296	26.48
455.504	29.54
455.711	29.82
455.919	28.93
456.127	30.58
456.335	28.98
456.542	30.42
456.75	31.16
456.958	33.2
457.165	32.43
457.373	34.59
457.581	33.56
457.788	34.62
457.996	35.67
458.203	35.63
458.411	35.94
458.618	37.48
458.826	37.19
459.033	37.26
459.24	38.03
459.448	39.18
459.655	40.95
459.863	40.88
460.07	40.33
460.277	42.23
460.484	44.03
460.692	43.64
460.899	45.2
461.106	44.32
461.313	45.5
461.52	45.13
461.728	46.97
461.935	48.05
462.142	48.66
462.349	49.34
462.556	49.85
462.763	51.71
462.97	53.77
463.177	54.45
463.384	55.52
463.591	55.11
463.798	57.23
464.005	56.56
464.212	58.84
464.418	59.04
464.625	61.24
464.832	62.66
465.039	62.95
465.246	64.5
465.452	64.99
465.659	65.59
465.866	67.81
466.072	68.52
466.279	68.36
466.486	70.79
466.692	71.48
466.899	72.07
467.105	75.12
467.312	73.33
467.519	77.44
467.725	76.39
467.931	75.29
468.138	77.41
468.344	79.84
468.551	79.63
468.757	81.74
468.964	82.75
469.17	82.32
469.376	83.57
469.583	84.38
469.789	85.26
469.995	86.8
470.201	86.85
470.408	87.39
470.614	88.24
470.82	88.53
471.026	89.45
471.232	90.4
471.438	91.11
471.644	90.7
471.85	90.76
472.056	93.51
472.262	91.47
472.468	91.71
472.674	92.16
472.88	92.66
473.086	92.77
473.292	90.18
473.498	91.43
473.704	92.48
473.91	91.52
474.116	90.77
474.321	91.28
474.527	89.17
474.733	91.74
474.939	89.66
475.144	90.23
475.35	86.35
475.556	85.89
475.761	86.11
475.967	86.02
476.173	85.96
476.378	84.46
476.584	83.94
476.789	82.88
476.995	83.06
477.2	82.5
477.406	80.7
477.611	79.54
477.817	78.67
478.022	78.16
478.227	76.91
478.433	76.02
478.638	73.92
478.843	73.34
479.049	73.08
479.254	73.02
479.459	71.71
479.664	69.75
479.87	67.91
480.075	67.78
480.28	66.56
480.485	65.68
480.69	64.88
480.895	64.75
481.1	62.88
481.306	61.9
481.511	60.62
481.716	60.55
481.921	59.2
482.126	57.87
482.33	56.55
482.535	56.13
482.74	54.9
482.945	53.69
483.15	52.96
483.355	52.34
483.56	51.28
483.765	49.93
483.969	49.03
484.174	48.25
484.379	47.88
484.583	47.11
484.788	46.63
484.993	46.44
485.197	45.12
485.402	44.72
485.607	44.09
485.811	42.74
486.016	41.33
486.22	41.81
486.425	40.37
486.629	39.86
486.834	39.37
487.038	38.66
487.243	38.12
487.447	37.72
487.652	37.33
487.856	36.56
488.06	36.27
488.265	35.4
488.469	34.73
488.673	33.91
488.877	33.7
489.082	33.68
489.286	32.65
489.49	31.89
489.694	31.92
489.898	31.07
490.102	30.53
490.307	30.68
490.511	30.35
490.715	29.19
490.919	29.13
491.123	28.96
491.327	28.24
491.531	28.91
491.735	27.56
491.939	27.07
492.143	27.08
492.346	26
492.55	26.13
492.754	25.92
492.958	25.77
493.162	25.31
493.366	24.71
493.569	24.71
493.773	24.3
493.977	24.37
494.18	23.96
494.384	23.65
494.588	22.8
494.791	22.94
494.995	22.8
495.199	22.38
495.402	22.21
495.606	21.9
495.809	21.12
496.013	21.58
496.216	20.73
496.42	21
496.623	20.7
496.827	19.83
497.03	20.14
497.233	19.9
497.437	19.33
497.64	19.86
497.843	19.3
498.047	19.42
498.25	18.77
498.453	18.84
498.656	18.73
498.86	18.36
499.063	18.55
499.266	18.12
499.469	18.07
499.672	18.41
499.875	17.86
500.078	17.35
500.281	17.11
500.484	17.49
500.687	17.25
500.89	16.86
501.093	16.95
501.296	16.93
501.499	16.96
501.702	16.44
501.905	16.42
502.108	15.81
502.311	15.6
502.514	15.43
502.716	15.75
502.919	15.79
503.122	15.43
503.325	15.49
503.527	15.13
503.73	14.81
503.933	14.98
504.135	14.9
504.338	14.63
504.541	14.35
504.743	14.82
504.946	14.79
505.148	14.62
505.351	14.19
505.553	14.35
505.756	13.77
505.958	13.87
506.161	13.76
506.363	13.84
506.565	13.84
506.768	13.87
506.97	13.37
507.172	13.25
507.375	13.29
507.577	13.18
507.779	13.78
507.982	13.37
508.184	12.68
508.386	12.65
508.588	12.69
508.79	13.03
508.993	12.55
509.195	12.55
509.397	12.74
509.599	12.47
509.801	12.46
510.003	12.31
510.205	12.2
510.407	12.36
510.609	12.61
510.811	11.93
511.013	12.33
511.215	11.99
511.417	12
511.618	12
511.82	11.74
512.022	11.57
512.224	11.84
512.426	11.76
512.627	11.76
512.829	11.88
513.031	11.35
513.233	11.51
513.434	11.83
513.636	11.44
513.838	11.23
514.039	11.21
514.241	11.13
514.442	11.1
514.644	11.2
514.845	11.15
515.047	10.96
515.248	10.71
515.45	10.88
515.651	10.98
515.853	10.97
516.054	10.44
516.256	10.7
516.457	10.68
516.658	10.73
516.86	10.67
517.061	10.56
517.262	10.35
517.463	10.61
517.665	10.64
517.866	10.5
518.067	10.47
518.268	10.56
518.469	10.29
518.67	10.26
518.872	9.98
519.073	10.34
519.274	9.95
519.475	10.03
519.676	10.28
519.877	10.4
520.078	9.72
520.279	10.07
520.48	10.11
520.681	10.11
520.881	10.03
521.082	9.89
521.283	9.82
521.484	10.16
521.685	9.88
521.886	9.95
522.086	9.68
522.287	9.97
522.488	9.81
522.689	9.9
522.889	9.6
523.09	9.8
523.291	9.86
523.491	9.76
523.692	9.68
523.892	9.86
524.093	9.73
524.294	9.85
524.494	9.8
524.695	9.7
524.895	9.52
525.096	9.4
525.296	9.81
525.496	9.44
525.697	9.59
525.897	9.74
526.098	9.67
526.298	9.56
526.498	9.66
526.699	9.49
526.899	9.32
527.099	9.42
527.299	9.25
527.499	9.42
527.7	9.54
527.9	9.41
528.1	9.47
528.3	9.54
528.5	9.34
528.7	9.53
528.9	9.52
529.1	9.48
529.3	9.53
529.5	9.44
529.7	9.47
529.9	9.45
530.1	9.39
530.3	9.25
530.5	9.38
530.7	9.31
530.9	9.44
531.1	9.13
531.3	9.4
531.499	9.27
531.699	9.3
531.899	9.17
532.099	9.43
532.298	9.51
532.498	9.25
532.698	9.1
532.897	9.07
533.097	9.26
533.297	9.08
533.496	9.39
533.696	9.23
533.895	9.41
534.095	9.29
534.294	9.38
534.494	9.15
534.693	9.17
534.893	9.32
535.092	9.3
535.292	9.34
535.491	9.37
535.69	9.19
535.89	9.33
536.089	9.27
536.288	9.45
536.488	9.43
536.687	9.44
536.886	9.29
537.085	9.43
537.285	9.44
537.484	9.47
537.683	9.18
537.882	9.41
538.081	9.45
538.28	9.3
538.479	9.34
538.678	9.64
538.877	9.51
539.076	9.4
539.275	9.62
539.474	9.44
539.673	9.62
539.872	9.44
540.071	9.48
540.27	9.45
540.469	9.54
540.668	9.39
540.867	9.5
541.065	9.5
541.264	9.72
541.463	9.47
541.662	9.45
541.861	9.59
542.059	9.55
542.258	9.53
542.457	9.68
542.655	9.68
542.854	9.75
543.052	9.65
543.251	9.63
543.45	9.7
543.648	9.87
543.847	9.85
544.045	9.67
544.244	9.84
544.442	9.79
544.641	9.96
544.839	9.78
545.037	9.85
545.236	9.88
545.434	9.88
545.632	9.87
545.831	9.8
546.029	9.98
546.227	9.91
546.426	9.96
546.624	9.89
546.822	10.11
547.02	9.92
547.218	9.98
547.417	10.1
547.615	10.05
547.813	10.28
548.011	10.2
548.209	10.21
548.407	10.17
548.605	10.4
548.803	10.16
549.001	10.29
549.199	10.25
549.397	10.33
549.595	10.32
549.793	10.34
549.991	10.36
550.189	10.42
550.387	10.44
550.584	10.42
550.782	10.57
550.98	10.52
551.178	10.43
551.376	10.58
551.573	10.52
551.771	10.8
551.969	10.8
552.166	10.71
552.364	10.85
552.562	10.74
552.759	10.72
552.957	10.77
553.154	10.54
553.352	10.98
553.55	10.79
553.747	10.9
553.945	10.97
554.142	11.14
554.339	11.13
554.537	11.1
554.734	11.16
554.932	11.11
555.129	11.15
555.326	11.23
555.524	11.39
555.721	11.46
555.918	11.24
556.116	11.34
556.313	11.35
556.51	11.29
556.707	11.38
556.904	11.63
557.102	11.33
557.299	11.55
557.496	11.67
557.693	11.68
557.89	11.8
558.087	11.75
558.284	11.66
558.481	11.81
558.678	12.1
558.875	12.09
559.072	12.02
559.269	12.05
559.466	12.03
559.663	12.15
559.86	12.2
560.057	12.31
560.254	12.28
560.45	12.32
560.647	12.35
560.844	12.53
561.041	12.41
561.237	12.52
561.434	12.54
561.631	12.52
561.828	12.68
562.024	12.74
562.221	12.77
562.418	12.87
562.614	12.94
562.811	12.81
563.007	12.97
563.204	13
563.4	13.13
563.597	13.09
563.793	13.19
563.99	13.2
564.186	13.28
564.383	13.24
564.579	13.46
564.775	13.38
564.972	13.68
565.168	13.55
565.365	13.58
565.561	13.75
565.757	13.78
565.953	13.75
566.15	13.82
566.346	13.9
566.542	13.96
566.738	14.24
566.934	14.13
567.131	14.22
567.327	14.33
567.523	14.46
567.719	14.39
567.915	14.63
568.111	14.57
568.307	14.57
568.503	14.72
568.699	14.71
568.895	14.62
569.091	14.92
569.287	15.01
569.483	15.09
569.679	15.17
569.875	15.26
570.07	15.29
570.266	15.5
570.462	15.42
570.658	15.53
570.854	15.7
571.049	15.79
571.245	15.66
571.441	15.84
571.636	15.77
571.832	15.95
572.028	16.05
572.223	16.25
572.419	16.2
572.615	16.22
572.81	16.3
573.006	16.36
573.201	16.5
573.397	16.72
573.592	16.93
573.788	16.79
573.983	16.94
574.179	17.02
574.374	17.22
574.569	17.08
574.765	17.29
574.96	17.52
575.156	17.52
575.351	17.37
575.546	17.62
575.741	17.72
575.937	17.91
576.132	17.97
576.327	17.97
576.522	18.12
576.718	18.38
576.913	18.51
577.108	18.43
577.303	18.51
577.498	18.84
577.693	18.85
577.888	19.01
578.083	19.11
578.278	19.04
578.473	19.17
578.668	19.32
578.863	19.25
579.058	19.53
579.253	19.63
579.448	19.8
579.643	19.88
579.838	20.04
580.033	20.19
580.227	20.36
580.422	20.31
580.617	20.54
580.812	20.71
581.006	20.78
581.201	20.9
581.396	20.94
581.591	21.11
581.785	21.36
581.98	21.3
582.175	21.47
582.369	21.63
582.564	21.82
582.758	21.97
582.953	21.89
583.147	22.05
583.342	22.17
583.536	22.34
583.731	22.5
583.925	22.65
584.12	22.59
584.314	22.78
584.509	23.1
584.703	23.19
584.897	23.35
585.092	23.58
585.286	23.74
585.48	23.8
585.674	24.02
585.869	24.15
586.063	24.37
586.257	24.4
586.451	24.42
586.646	24.67
586.84	24.85
587.034	25
587.228	25.1
587.422	25.23
587.616	25.56
587.81	25.49
588.004	25.77
588.198	26
588.392	26.12
588.586	26.43
588.78	26.45
588.974	26.73
589.168	26.78
589.362	27.04
589.556	27.23
589.75	27.45
589.944	27.47
590.137	27.7
590.331	27.79
590.525	28.13
590.719	28.29
590.913	28.66
591.106	28.76
591.3	29.01
591.494	29.01
591.687	29.18
591.881	29.45
592.075	29.73
592.268	29.81
592.462	30.09
592.655	30.17
592.849	30.55
593.043	30.66
593.236	30.66
593.43	31.06
593.623	31.26
593.817	31.64
594.01	31.82
594.203	31.9
594.397	32.05
594.59	32.34
594.784	32.65
594.977	32.8
595.17	33.12
595.364	33.15
595.557	33.53
595.75	33.63
595.943	33.91
596.137	34.08
596.33	34.42
596.523	34.77
596.716	34.93
596.909	35.14
597.102	35.15
597.296	35.56
597.489	35.94
597.682	35.98
597.875	36.39
598.068	36.67
598.261	36.61
598.454	37.14
598.647	37.28
598.84	37.45
599.033	37.7
599.226	38.22
599.419	38.34
599.611	38.58
599.804	38.9
599.997	38.94
600.19	39.03
600.383	39.52
600.576	39.92
600.768	40.03
600.961	40.44
601.154	40.6
601.347	40.79
601.539	41.23
601.732	41.51
601.925	41.87
602.117	41.97
602.31	42.44
602.502	42.74
602.695	42.98
602.888	43.26
603.08	43.51
603.273	43.75
603.465	44.01
603.658	44.39
603.85	44.69
604.043	45.11
604.235	45.57
604.427	45.71
604.62	45.82
604.812	46.1
605.004	46.45
605.197	46.87
605.389	47.05
605.581	47.43
605.774	47.71
605.966	47.91
606.158	48.13
606.35	48.62
606.543	49.1
606.735	49.63
606.927	49.81
607.119	50.1
607.311	50.38
607.503	50.38
607.695	50.99
607.887	51.25
608.079	51.62
608.271	51.72
608.463	52.35
608.655	52.61
608.847	52.91
609.039	53.31
609.231	53.62
609.423	53.98
609.615	54.03
609.807	54.77
609.999	54.8
610.191	55.33
610.382	55.68
610.574	56.13
610.766	56.34
610.958	56.42
611.15	57.2
611.341	57.1
611.533	57.58
611.725	58.03
611.916	58.15
612.108	58.68
612.3	59.21
612.491	59.66
612.683	59.95
612.874	60.39
613.066	60.64
613.257	60.82
613.449	61.41
613.64	61.71
613.832	62.32
614.023	62.48
614.215	62.92
614.406	63.27
614.598	63.75
614.789	64.02
614.98	64.42
615.172	64.92
615.363	64.97
615.554	65.45
615.746	65.65
615.937	66.29
616.128	66.42
616.319	66.89
616.511	67.49
616.702	67.45
616.893	67.88
617.084	68.22
617.275	68.57
617.466	68.96
617.658	69.71
617.849	70.01
618.04	70.4
618.231	70.59
618.422	70.76
618.613	71.3
618.804	71.86
618.995	72.16
619.186	72.62
619.377	73.04
619.568	73.26
619.758	73.62
619.949	73.92
620.14	74.22
620.331	74.87
620.522	75.04
620.713	75.4
620.903	75.94
621.094	76.35
621.285	76.27
621.476	77.08
621.666	77.52
621.857	77.6
622.048	77.95
622.238	78.42
622.429	78.42
622.62	78.89
622.81	79.43
623.001	79.99
623.191	80.23
623.382	80.66
623.572	80.9
623.763	81.29
623.953	81.51
624.144	81.89
624.334	82.38
624.525	82.69
624.715	83.23
624.905	83.5
625.096	84.02
625.286	84.26
625.477	84.36
625.667	84.98
625.857	84.94
626.047	85.53
626.238	85.88
626.428	86
626.618	86.6
626.808	86.63
626.999	86.98
627.189	87.48
627.379	87.55
627.569	88.21
627.759	88.44
627.949	88.72
628.139	88.95
628.329	89.26
628.519	89.44
628.709	90.21
628.899	90.35
629.089	90.32
629.279	90.52
629.469	90.84
629.659	91.1
629.849	91.35
630.039	91.81
630.229	92.12
630.419	92.28
630.609	92.27
630.798	93.03
630.988	93.35
631.178	93.48
631.368	93.44
631.557	93.94
631.747	94.06
631.937	94.48
632.127	94.9
632.316	94.72
632.506	95.4
632.696	95.3
632.885	95.61
633.075	96.1
633.264	96.22
633.454	96.69
633.643	96.65
633.833	96.82
634.022	96.95
634.212	97.45
634.401	97.45
634.591	97.61
634.78	97.58
634.97	97.9
635.159	98.38
635.348	98.57
635.538	98.67
635.727	98.75
635.916	99.11
636.106	99.46
636.295	99.45
636.484	99.89
636.674	99.73
636.863	100.41
637.052	100.24
637.241	100.56
637.43	100.7
637.619	101.29
637.809	101.18
637.998	101.48
638.187	101.66
638.376	101.32
638.565	101.83
638.754	101.75
638.943	102.16
639.132	102.32
639.321	102.39
639.51	102.61
639.699	103.05
639.888	103.12
640.077	103.04
640.266	103.03
640.455	103.39
640.643	103.6
640.832	103.61
641.021	103.89
641.21	103.72
641.399	104.02
641.587	104.01
641.776	104.28
641.965	104.18
642.154	104.42
642.342	104.33
642.531	104.64
642.72	104.27
642.908	104.73
643.097	104.68
643.286	105.23
643.474	105.32
643.663	105.46
643.851	105.1
644.04	105.5
644.228	104.96
644.417	105.18
644.605	105.97
644.794	105.55
644.982	105.69
645.171	105.45
645.359	105.7
645.547	105.85
645.736	106.01
645.924	105.86
646.112	105.97
646.301	106.42
646.489	106.23
646.677	106.24
646.866	106.59
647.054	106.53
647.242	106.8
647.43	106.37
647.618	106.85
647.807	106.53
647.995	106.68
648.183	106.8
648.371	106.6
648.559	106.89
648.747	106.71
648.935	106.69
649.123	106.91
649.311	107.16
649.499	107.06
649.687	107.23
649.875	107.06
650.063	107.42
650.251	106.95
650.439	107.03
650.627	107.31
650.815	107.34
651.003	107.02
651.191	107.04
651.378	107.07
651.566	107.02
651.754	107.06
651.942	107.07
652.13	107.02
652.317	106.96
652.505	107.13
652.693	107.21
652.88	106.6
653.068	106.94
653.256	106.93
653.443	106.98
653.631	106.92
653.819	107.06
654.006	107.38
654.194	107.1
654.381	107.32
654.569	107.01
654.756	107.18
654.944	107.11
655.131	107.15
655.319	107.47
655.506	107.41
655.693	107.44
655.881	107
656.068	107.23
656.256	107.13
656.443	107.52
656.63	107.19
656.818	107.21
657.005	106.95
657.192	107.16
657.379	107.2
657.567	106.99
657.754	106.93
657.941	106.87
658.128	106.78
658.315	107.02
658.502	106.65
658.69	106.69
658.877	106.37
659.064	106.89
659.251	106.78
659.438	106.84
659.625	106.56
659.812	106.62
659.999	106.39
660.186	106.38
660.373	106.31
660.56	106.16
660.747	106.31
660.934	106.46
661.121	106.25
661.308	106.41
661.494	106.27
661.681	106.09
661.868	106.05
662.055	106.43
662.242	106.14
662.428	106.36
662.615	106.36
662.802	106.14
662.989	106.5
663.175	106.24
663.362	106.06
663.549	106.54
663.735	106.12
663.922	106.3
664.109	105.76
664.295	105.84
664.482	105.57
664.668	105.65
664.855	105.76
665.041	105.37
665.228	105.46
665.414	105.41
665.601	105.67
665.787	105.54
665.974	105.94
666.16	105.81
666.347	105.35
666.533	105.58
666.719	105.56
666.906	105.46
667.092	105.15
667.278	105.48
667.465	105.5
667.651	105.64
667.837	105.27
668.023	105.45
668.21	105.49
668.396	105.21
668.582	105.1
668.768	105
668.954	105.07
669.14	104.63
669.327	105.16
669.513	104.97
669.699	104.9
669.885	104.97
670.071	104.61
670.257	104.54
670.443	104.83
670.629	104.85
670.815	104.59
671.001	104.56
671.187	104.31
671.373	104.45
671.559	104.34
671.744	104.5
671.93	104.22
672.116	104.26
672.302	104.2
672.488	104.2
672.674	103.77
672.859	103.99
673.045	104.06
673.231	104.53
673.417	104.22
673.602	103.96
673.788	104.22
673.974	104
674.159	104.33
674.345	104.13
674.531	104.03
674.716	103.94
674.902	104.05
675.087	104.02
675.273	103.85
675.459	103.71
675.644	103.43
675.83	103.95
676.015	103.97
676.2	103.84
676.386	103.72
676.571	103.95
676.757	103.39
676.942	103.55
677.128	103.71
677.313	103.7
677.498	103.24
677.684	103.64
677.869	103.4
678.054	103.76
678.24	103.65
678.425	103.62
678.61	103.62
678.795	103.46
678.98	103.64
679.166	104.08
679.351	104.1
679.536	103.47
679.721	103.35
679.906	102.9
680.091	103.32
680.276	103.05
680.461	103.42
680.647	102.93
680.832	103.29
681.017	103.2
681.202	103.44
681.387	103.01
681.572	103.33
681.756	103.24
681.941	103.31
682.126	103.11
682.311	103.22
682.496	103.49
682.681	103.23
682.866	103.3
683.051	102.92
683.235	103.24
683.42	103.03
683.605	103.2
683.79	103.29
683.974	103.23
684.159	102.75
684.344	103.07
684.529	102.85
684.713	102.78
684.898	102.83
685.083	103.43
685.267	103.38
685.452	102.99
685.636	103.07
685.821	103.14
686.005	102.86
686.19	102.77
686.375	102.63
686.559	102.79
686.744	102.93
686.928	102.81
687.112	102.54
687.297	103.01
687.481	102.88
687.666	102.71
687.85	102.98
688.034	102.43
688.219	102.75
688.403	102.4
688.587	102.19
688.772	102.58
688.956	102.39
689.14	102.7
689.324	102.85
689.509	102.8
689.693	102.69
689.877	102.55
690.061	102.56
690.245	102.5
690.43	102.43
690.614	102.44
690.798	102.1
690.982	102.78
691.166	102.54
691.35	102.58
691.534	102.38
691.718	102.65
691.902	102.41
692.086	102.4
692.27	102.13
692.454	102.44
692.638	102.61
692.822	102.52
693.006	102.64
693.19	102.58
693.373	102.27
693.557	102.49
693.741	102.61
693.925	102.62
694.109	102.65
694.293	102.52
694.476	102.49
694.66	102.33
694.844	102.5
695.027	102.49
695.211	102.68
695.395	102.68
695.578	102.62
695.762	102.45
695.946	102.44
696.129	102.22
696.313	102.36
696.497	102.34
696.68	102.7
696.864	102.41
697.047	102.82
697.231	102.24
697.414	102.29
697.598	102.44
697.781	102.76
697.965	102.89
698.148	102.82
698.331	102.89
698.515	103.03
698.698	103.28
698.881	102.6
699.065	103.06
699.248	103
699.431	102.82
699.615	103
699.798	103.04
699.981	102.65
700.165	102.52
700.348	102.73
700.531	102.32
700.714	102.47
700.897	102.71
701.08	102.5
701.264	102.41
701.447	102.59
701.63	102.62
701.813	103
701.996	102.67
702.179	103.21
702.362	102.91
702.545	103.05
702.728	102.6
702.911	103.01
703.094	102.81
703.277	103.12
703.46	103.24
703.643	102.76
703.826	103.2
704.009	103.16
704.191	103.01
704.374	103.27
704.557	103.05
704.74	103.06
704.923	103.05
705.106	103.34
705.288	103.12
705.471	102.89
705.654	103.21
705.837	103.15
706.019	103.33
706.202	103.22
706.385	103.11
706.567	103.22
706.75	102.9
706.932	103.22
707.115	102.86
707.298	103.45
707.48	103.47
707.663	103.66
707.845	103.47
708.028	103.14
708.21	103.65
708.393	103.24
708.575	102.93
708.758	103.06
708.94	103.06
709.123	102.98
709.305	102.9
709.487	103.26
709.67	103.45
709.852	103.38
710.034	103.25
710.217	103.24
710.399	103.28
710.581	103.33
710.764	103.55
710.946	103.43
711.128	103.21
711.31	103.51
711.492	103.76
711.675	103.5
711.857	103.62
712.039	103.2
712.221	103.32
712.403	103.08
712.585	103.67
712.767	103.78
712.949	103.5
713.131	103.39
713.314	103.5
713.496	103.12
713.678	103.21
713.86	103.38
714.041	103.54
714.223	103.67
714.405	103.32
714.587	102.95
714.769	103.27
714.951	103.42
715.133	103.5
715.315	103.58
715.497	103.9
715.678	103.73
715.86	103.48
716.042	103.64
716.224	103.69
716.406	103.28
716.587	103.95
716.769	103.56
716.951	103.33
717.132	103.95
717.314	103.65
717.496	103.78
717.677	103.57
717.859	103.64
718.041	104.01
718.222	103.52
718.404	103.82
718.585	103.71
718.767	103.37
718.948	103.93
719.13	103.74
719.311	103.56
719.493	103.68
719.674	103.93
719.856	104.29
720.037	104.32
720.219	104.05
720.4	104.4
720.581	104.2
720.763	104.29
720.944	104.22
721.125	103.92
721.307	104.13
721.488	104.23
721.669	104.02
721.85	103.88
722.032	104.07
722.213	104.01
722.394	103.69
722.575	103.73
722.756	103.87
722.938	103.73
723.119	103.68
723.3	104.08
723.481	104.11
723.662	103.89
723.843	103.84
724.024	104.16
724.205	103.73
724.386	103.83
724.567	103.37
724.748	103.61
724.929	103.45
725.11	103.56
725.291	103.68
725.472	103.62
725.653	103.98
725.834	103.62
726.015	103.43
726.196	103.53
726.377	103.65
726.557	103.18
726.738	103.34
726.919	103.69
727.1	103.53
727.281	104.29
727.461	102.94
727.642	103.52
727.823	103.19
728.004	103.23
728.184	103.7
728.365	103.26
728.546	103.68
728.726	104.13
728.907	103.55
729.087	103.45
729.268	103.72
729.449	103.52
729.629	103.7
729.81	103.21
729.99	103.15
730.171	103.35
730.351	102.96
730.532	103.27
730.712	103.14
730.893	103.47
731.073	103.61
731.253	103.59
731.434	103.16
731.614	103.25
731.795	103.23
731.975	103.06
732.155	103.41
732.336	103.09
732.516	103.54
732.696	103.03
732.876	103.13
733.057	103.24
733.237	102.93
733.417	103.27
733.597	103.36
733.778	103.3
733.958	103.27
734.138	103.14
734.318	103.08
734.498	103.44
734.678	102.88
734.858	103.46
735.038	103.21
735.218	103.54
735.398	102.87
735.579	103.2
735.759	103.22
735.939	103.13
736.119	102.91
736.298	103.24
736.478	103.46
736.658	103.21
736.838	103.1
737.018	102.78
737.198	103.07
737.378	102.64
737.558	103.04
737.738	102.8
737.917	102.84
738.097	102.52
738.277	102.81
738.457	102.62
738.637	102.18
738.816	102.39
738.996	102.59
739.176	102.74
739.355	102.52
739.535	102.51
739.715	102.79
739.894	102.6
740.074	102.6
740.254	102.25
740.433	102.73
740.613	102.12
740.792	102.54
740.972	101.88
741.151	102.05
741.331	102.12
741.51	102.02
741.69	102
741.869	101.91
742.049	101.88
742.228	101.77
742.408	101.68
742.587	101.61
742.766	101.54
742.946	102.14
743.125	101.26
743.305	101.82
743.484	101.29
743.663	101.86
743.842	101.23
744.022	101.51
744.201	101.31
744.38	100.9
744.56	100.67
744.739	101.49
744.918	101.33
745.097	101.33
745.276	100.65
745.455	100.9
745.635	100.15
745.814	100.48
745.993	100.95
746.172	100.53
746.351	100.97
746.53	101.25
746.709	100.65
746.888	101.28
747.067	101.38
747.246	100.44
747.425	101.18
747.604	101.05
747.783	100.91
747.962	100.95
748.141	100.42
748.32	100.25
748.499	100.46
748.677	100.77
748.856	100.02
749.035	100.53
749.214	100.36
749.393	100.08
749.572	99.91
749.75	100.4
749.929	100.12
750.108	99.87
750.287	99.76
750.465	100.53
750.644	100.3
750.823	100.06
751.001	100.59
751.18	100.31
751.359	99.66
751.537	99.78
751.716	99.86
751.894	99.53
752.073	99.13
752.251	99.69
752.43	99.91
752.609	99.63
752.787	99.15
752.966	99.33
753.144	99.71
753.322	99.45
753.501	99.52
753.679	99.8
753.858	99.71
754.036	99.29
754.215	99.14
754.393	99.1
754.571	99.51
754.75	98.98
754.928	98.74
755.106	98.97
755.284	98.98
755.463	98.71
755.641	98.5
755.819	99.05
755.997	98.83
756.176	98.51
756.354	98.44
756.532	98.71
756.71	98.02
756.888	98.16
757.066	98.43
757.245	98.34
757.423	98.12
757.601	98.19
757.779	97.78
757.957	98.19
758.135	98.56
758.313	97.95
758.491	97.94
758.669	97.91
758.847	97.81
759.025	98.02
759.203	96.86
759.381	97.83
759.559	97.71
759.737	97.24
759.915	97.59
760.092	97.4
760.27	97.27
760.448	97.1
760.626	98.25
760.804	97.38
760.981	96.95
761.159	97.08
761.337	96.85
761.515	96.96
761.692	97.21
761.87	96.81
762.048	96.74
762.226	96.99
762.403	96.45
762.581	97.02
762.759	96.67
762.936	96.91
763.114	97.28
763.291	96.52
763.469	97.11
763.647	96.6
763.824	96.27
764.002	96.7
764.179	96.3
764.357	96.2
764.534	96.11
764.712	96.17
764.889	95.83
765.066	95.73
765.244	96.68
765.421	96.11
765.599	96.02
765.776	96.15
765.953	96.03
766.131	96.61
766.308	95.74
766.485	95.86
766.663	95.84
766.84	96.02
767.017	95.61
767.194	95.37
767.372	95.06
767.549	95.06
767.726	95.61
767.903	95.25
768.081	95.19
768.258	95.06
768.435	94.93
768.612	94.06
768.789	95.09
768.966	94.86
769.143	93.98
769.32	93.92
769.497	94.16
769.674	93.65
769.851	94.5
770.028	94.07
770.205	94.53
770.382	93.93
770.559	93.58
770.736	93.86
770.913	93.35
771.09	93.19
771.267	93.07
771.444	93
771.621	93.5
771.798	93.33
771.975	93.49
772.151	93.54
772.328	93.21
772.505	93.18
772.682	93.06
772.859	92.85
773.035	93.02
773.212	93.35
773.389	92.68
773.565	92.39
773.742	93.47
773.919	92.59
774.096	92.52
774.272	93.26
774.449	92.7
774.625	92.57
774.802	92.86
774.979	92.66
775.155	92.48
775.332	92.92
775.508	92.88
775.685	92.88
775.861	91.92
776.038	92.4
776.214	91.97
776.391	92.54
776.567	91.9
776.744	92.37
776.92	91.31
777.096	91.91
777.273	92.02
777.449	91
777.626	92.01
777.802	92.24
777.978	92.08
778.155	91.59
778.331	91.19
778.507	90.64
778.683	90.96
778.86	91.11
779.036	90.72
779.212	91.17
779.388	90.47
779.565	91.58
779.741	90.24
779.917	89.95
780.093	90.96
780.269	89.85
780.445	91.08
780.621	90.3
780.797	91.42
780.974	90.84
781.15	90.88
781.326	90.1
781.502	90.43
781.678	90.19
781.854	89.45
782.03	90.12
782.206	89.31
782.382	89.91
782.558	89.82
782.733	89.77
782.909	89.65
783.085	89.17
783.261	89.62
783.437	89.14
783.613	88.67
783.789	88.97
783.965	89.32
784.14	89.44
784.316	88.98
784.492	90.19
784.668	89.81
784.843	88.92
785.019	88.8
785.195	88.3
785.371	88.1
785.546	89.94
785.722	88.3
785.898	88.76
786.073	88.38
786.249	88.98
786.424	88.52
786.6	88.68
786.776	89.22
786.951	88.62
787.127	89.2
787.302	88.73
787.478	89
787.653	87.9
787.829	87.59
788.004	88.45
788.18	87.69
788.355	88.05
788.531	87.82
788.706	87.33
788.881	88.41
789.057	89.11
789.232	88.58
789.408	87.89
789.583	87.8
789.758	88.43
789.934	86.82
790.109	86.58
790.284	86.61
790.459	86.5
790.635	86.82
790.81	87.22
790.985	86.84
791.16	86.95
791.336	87.6
791.511	87.4
791.686	87.12
791.861	87.37
792.036	87.3
792.211	87.38
792.387	87.09
792.562	86.4
792.737	86.56
792.912	87.54
793.087	87.16
793.262	86.1
793.437	87.19
793.612	87.12
793.787	85.23
793.962	86.98
794.137	86.45
794.312	86.6
794.487	85.26
794.662	86.05
794.837	85.48
795.011	84.96
795.186	84.83
795.361	85.84
795.536	85.75
795.711	85.59
795.886	85.99
796.06	86.64
796.235	85.43
796.41	86.09
796.585	85.73
796.76	86.05
796.934	85.4
797.109	85.88
797.284	85.44
797.458	84.75
797.633	85.04
797.808	86.22
797.982	85.02
798.157	85.85
798.332	84.47
798.506	86.32
798.681	84.79
798.855	85.37
799.03	86.01
799.204	86.58
799.379	84
799.553	85.53
799.728	84
799.902	85.69
800.077	84.72
800.251	85.42
800.426	83.17
800.6	85.25
800.775	85.28
800.949	85.44
801.123	85.18
801.298	83.57
801.472	85.83
801.647	84.85
801.821	84.51
801.995	83.06
802.169	85.5
802.344	84.2
802.518	83.23
802.692	83.87
802.867	86.05
803.041	83.89
803.215	83.1
803.389	83.81
803.563	83.67
803.737	81.92
803.912	84.69
804.086	84.29
804.26	83.5
804.434	84.64
804.608	82.75
804.782	85.39
804.956	82.86
805.13	83.39
805.304	81.37
805.478	83.98
805.652	82.74
805.826	82.54
806	82.93
806.174	82.42
806.348	82.64
806.522	82.13
806.696	83.69
806.87	84.56
807.044	82.43
807.218	82.03
807.392	83.72
807.566	83.56
807.739	81.47
807.913	80.57
808.087	82.45
808.261	83.27
808.435	81
808.608	81.3
808.782	82.17
808.956	83.44
809.13	83.12
809.303	84.06
809.477	81.16
809.651	81.81
809.824	82.12
809.998	81.68
810.172	80.04
810.345	79.55
810.519	82.05
810.692	82.28
810.866	81.02
811.04	81.53
811.213	81.25
811.387	81.84
811.56	80
811.734	79.39
811.907	80.96
812.081	79.86
812.254	80.05
812.428	80.55
812.601	80.19
812.774	80.84
812.948	81.36
813.121	81.47
813.295	81.96
813.468	82.2
813.641	79.28
813.815	79.85
813.988	78.32
814.161	78.99
814.335	81.53
814.508	81.47
814.681	79.74
814.854	79.46
815.028	79.55
815.201	80.3
815.374	80.97
815.547	79.98
815.72	80.29
815.894	80.36
816.067	80.79
816.24	81.06
816.413	79.38
816.586	79.74
816.759	79.56
816.932	79.11
817.105	79.98
817.278	79.82
817.452	78.17
817.625	80.93
817.798	79.84
817.971	79.79
818.144	78.61
818.317	80.47
818.49	78.77
818.662	79.85
818.835	77.66
819.008	79.84
819.181	79.46
819.354	80.36
819.527	78.33
819.7	78.63
819.873	79.62
820.046	79.55
820.218	80.6
820.391	80.53
820.564	77.89
820.737	78.87
820.909	78.86
821.082	77.55
821.255	77.6
821.428	79.44
821.6	79.67
821.773	79.28
821.946	80.02
822.118	78.75
822.291	79.75
822.464	78.56
822.636	77.75
822.809	78.28
822.982	78.8
823.154	79.19
823.327	78.28
823.499	78.71
823.672	78.12
823.844	80.42
824.017	78.91
824.189	78.89
824.362	77.8
824.534	78.29
824.707	77.7
824.879	79.86
825.052	81.22
825.224	79.55
825.396	78.66
825.569	79.43
825.741	78.39
825.914	78.77
826.086	78.22
826.258	78.94
826.431	79.37
826.603	78
826.775	80.52
826.947	78.28
827.12	77.79
827.292	79.79
827.464	79.14
827.636	80.69
827.809	77.91
827.981	79.05
828.153	78
828.325	78.87
828.497	78.61
828.669	79.02
828.842	78.5
829.014	79.08
829.186	75.82
829.358	77.77
829.53	78.47
829.702	77.34
829.874	77.9
830.046	77.72
830.218	80.57
830.39	77.36
830.562	78.92
830.734	77.64
830.906	77.86
831.078	78.4
831.25	76.88
831.422	78.08
831.594	78.22
831.766	78.44
831.937	78.69
832.109	78.16
832.281	77.53
832.453	77.42
832.625	79.53
832.797	79.39
832.968	77.71
833.14	76.63
833.312	77.03
833.484	79.61
833.655	78.69
833.827	77.07
833.999	78.27
834.171	77.9
834.342	79.34
834.514	78.38
834.686	79.87
834.857	78.19
835.029	76.74
835.2	78.33
835.372	76.89
835.544	77.7
835.715	77.86
835.887	77.07
836.058	77.33
836.23	78.03
836.401	78.39
836.573	78.32
836.744	76.94
836.916	75.49
837.087	76.75
837.259	76.87
837.43	77.57
837.602	74.99
837.773	77.26
837.945	76.64
838.116	77.2
838.287	76.95
838.459	79.69
838.63	78.45
838.801	77.69
838.973	77.42
839.144	77.21
839.315	77.51
839.487	77.4
839.658	77.44
839.829	78.2
840	76.89
840.172	79.27
840.343	75.95
840.514	76.47
840.685	77.46
840.856	76.61
841.027	76.5
841.199	78.13
841.37	76.99
841.541	77.17
841.712	78.65
841.883	77.76
842.054	78
842.225	77.5
842.396	79.26
842.567	78.02
842.738	77.08
842.909	77.42
843.08	76.65
843.251	77.28
843.422	78.48
843.593	78.48
843.764	76.22
843.935	78.83
844.106	75.76
844.277	78.04
844.448	76.44
844.619	76.92
844.79	75.87
844.96	77.9
845.131	75.78
845.302	79.95
845.473	77.67
845.644	75.68
845.814	78.4
845.985	77.15
846.156	76.89
846.327	77.33
846.497	80.45
846.668	77.34
846.839	77.97
847.01	77.45
847.18	76.99
847.351	75.66
847.522	78.33
847.692	78.5
847.863	79.36
848.033	78.03
848.204	78.68
848.375	77.89
848.545	77.39
848.716	76.07
848.886	76.63
849.057	77.15
849.227	78.41
849.398	77.69
849.568	75.99
849.739	76.44
849.909	78.48
850.08	78.61
850.25	78.04
850.421	77.78
850.591	76.37
850.761	76.13
850.932	77.13
851.102	79.04
851.272	76.78
851.443	78.65
851.613	78.34
851.783	78.01
851.954	75.56
852.124	78.73
852.294	78.46
852.465	78.81
852.635	77.71
852.805	80.1
852.975	76.37
853.145	75.93
853.316	78.84
853.486	78.95
853.656	78.96
853.826	77.92
853.996	76.62
854.166	77.5
854.337	74.58
854.507	76.04
854.677	77.39
854.847	78.49
855.017	78.53
855.187	77.41
855.357	78.35
855.527	77.38
855.697	79.28
855.867	75.25
856.037	76.71
856.207	77.49
856.377	74.95
856.547	78.45
856.717	75.96
856.887	79.99
857.057	81.84
857.227	76.73
857.397	77.27
857.566	79.03
857.736	78.28
857.906	78.78
858.076	78.05
858.246	76.9
858.416	79.77
858.585	78.9
858.755	76.73
858.925	79.85
859.095	78.29
859.264	78.27
859.434	78.83
859.604	76.88
859.774	76.9
859.943	79.94
860.113	75.98
860.283	78.73
860.452	77.68
860.622	78.31
860.791	77.95
860.961	75.25
861.131	80.57
861.3	78.16
861.47	79.62
861.639	80.05
861.809	76.85
861.978	80.08
862.148	80.51
862.318	80.87
862.487	76.34
862.657	76.6
862.826	79.76
862.995	79.42
863.165	78.5
863.334	79.41
863.504	76.93
863.673	80.21
863.843	81.25
864.012	80.57
864.181	77.73
864.351	78.07
864.52	79.48
864.689	80.69
864.859	78.61
865.028	77.29
865.197	79.91
865.366	78.51
865.536	75.66
865.705	77.53
865.874	77.68
866.043	78.32
866.213	82.16
866.382	78.35
866.551	79.71
866.72	80.46
866.889	79.83
867.059	78.45
867.228	82.67
867.397	77.58
867.566	81.13
867.735	75.37
867.904	78.57
868.073	82.15
868.242	77.62
868.411	82.14
868.58	79.57
868.749	78.59
868.918	78.38
869.087	80.84
869.256	81.29
869.425	81.34
869.594	79.58
869.763	79.38
869.932	76.17
870.101	81.03
870.27	78.76
870.439	77.23
870.608	81.45
870.777	78.93
870.945	80.86
871.114	81.01
871.283	79.33
871.452	80.48
871.621	76.8
871.789	78.09
871.958	80.48
872.127	75.63
872.296	81.21
872.464	80.49
872.633	81.86
872.802	81.59
872.971	79.99
873.139	77.85
873.308	78.06
873.477	82.91
873.645	81.91
873.814	82.51
873.983	85.78
874.151	77.43
874.32	80.46
874.488	79.35
874.657	82.81
874.826	76.15
874.994	80.68
875.163	78.85
875.331	75.31
875.5	79.36
875.668	79.41
875.837	78.58
876.005	80.65
876.174	77.93
876.342	83.85
876.51	80.32
876.679	80.74
876.847	83.59
877.016	81.01
877.184	78.83
877.352	82.75
877.521	83.96
877.689	82.94
877.857	76.85
878.026	81.42
878.194	82.09
878.362	82.28
878.531	84.38
878.699	86.26
878.867	75.15
879.036	85.29
879.204	82.62
879.372	82.71
879.54	78.8
879.708	81.82
879.877	84.45
880.045	79.16
880.213	80.31
880.381	80.81
880.549	86.59
880.717	82.36
880.885	84.71
881.054	84.56
881.222	81.34
881.39	85.26
881.558	81.46
881.726	82.2
881.894	83.15
882.062	80.01
882.23	84.4
882.398	80.06
882.566	84.14
882.734	80.5
882.902	84.26
883.07	85.4
883.238	78.11
883.406	84.78
883.574	82.3
883.741	80.35
883.909	81.67
884.077	78.24
884.245	81.09
884.413	84.45
884.581	80.69
884.749	84.2
884.916	78.63
885.084	89.47
885.252	86.72
885.42	86.01
885.587	82.71
885.755	83.95
885.923	84.48
886.091	85.14
886.258	82.69
886.426	83.24
886.594	77.5
886.761	83.15
886.929	80.48
887.097	83.2
887.264	83.63
887.432	89.45
887.6	79.74
887.767	80.69
887.935	86.71
888.102	84.69
888.27	82.51
888.438	83.42
888.605	82.92
888.773	86.15
888.94	83.76
889.108	84.33
889.275	83.09
889.443	77.42
889.61	84.16
889.778	89.3
889.945	88.88
890.112	80.08
890.28	88.02
890.447	81.41
890.615	85.29
890.782	80.87
890.949	80.89
891.117	86.45
891.284	80.07
891.452	88.48
891.619	87.19
891.786	85.37
891.953	80.94
892.121	80.99
892.288	89.01
892.455	84.27
892.623	88.32
892.79	86.86
892.957	84.44
893.124	83.78
893.291	81.17
893.459	86.16
893.626	91.74
893.793	91.6
893.96	86.85
894.127	83.63
894.294	90.55
894.461	86.39
894.629	86.74
894.796	85.07
894.963	88.96
895.13	83.61
895.297	87.45
895.464	91.1
895.631	80.99
895.798	81.44
895.965	84.51
896.132	84.4
896.299	86.77
896.466	87.21
896.633	91.29
896.8	84
896.967	86
897.134	88.29
897.301	81.51
897.467	84.97
897.634	85.42
897.801	90.84
897.968	89.48
898.135	79.51
898.302	87.85
898.469	89.95
898.635	87.51
898.802	87.66
898.969	82.59
899.136	94.04
899.303	90.43
