Data from 2019-05-04_Transmission_20-17-24-645.txt Node
Date: Sat May 04 20:17:24 EDT 2019
User: dh1006
Spectrometer: USB4E01358
Autoset integration time: false
Trigger mode: 4
Integration Time (sec): 1.000000E-1
Scans to average: 10
Electric dark correction enabled: true
Nonlinearity correction enabled: false
Boxcar width: 0
Stray light correction enabled: false
XAxis mode: Wavelengths
Stop averaging: false
Number of Pixels in Spectrum: 3648
>>>>>Begin Spectral Data<<<<<
176.727	70.45
176.966	70.45
177.205	70.45
177.444	-137.5
177.683	-107.55
177.922	-20.79
178.161	20.9
178.4	615
178.638	56.41
178.877	4450
179.116	42.67
179.355	186.67
179.593	44.63
179.832	-16.67
180.071	108.33
180.309	83.19
180.548	-15.38
180.786	182.14
181.025	85.34
181.263	69.94
181.502	62.03
181.74	61.2
181.979	95.27
182.217	104.15
182.456	63.9
182.694	74.88
182.932	56.56
183.17	45.3
183.409	71.84
183.647	45.25
183.885	77.25
184.123	74.23
184.361	61.33
184.6	95.72
184.838	40.58
185.076	67.93
185.314	85.37
185.552	71.86
185.79	148.39
186.028	107.5
186.266	41.56
186.503	47.37
186.741	83.99
186.979	82.83
187.217	62.96
187.455	54.32
187.693	84.03
187.93	50.11
188.168	48.93
188.406	67.58
188.643	85.75
188.881	122.05
189.119	77.88
189.356	69.38
189.594	72.64
189.831	104.36
190.069	109.09
190.306	61.37
190.543	75.37
190.781	74
191.018	77.74
191.256	85.39
191.493	73.27
191.73	33.45
191.967	57.95
192.205	57.03
192.442	146.6
192.679	57.74
192.916	87.5
193.153	57.91
193.39	78.38
193.628	71.83
193.865	69.14
194.102	84.92
194.339	87.99
194.576	50.26
194.813	106.7
195.049	59.67
195.286	69.12
195.523	74.56
195.76	68.4
195.997	69.59
196.234	73.97
196.47	84.64
196.707	70.38
196.944	136.65
197.18	65.98
197.417	92.49
197.654	26.37
197.89	45.51
198.127	100
198.363	14.02
198.6	27.08
198.836	61.38
199.073	63.89
199.309	65.17
199.546	92.65
199.782	87.76
200.018	124.12
200.255	37
200.491	113.58
200.727	91.64
200.963	94.89
201.199	110.9
201.436	106.22
201.672	103.63
201.908	38.8
202.144	42.04
202.38	73.05
202.616	106.53
202.852	98.31
203.088	79.37
203.324	86.27
203.56	64.16
203.796	69.07
204.032	80.31
204.268	65.76
204.503	85.92
204.739	55.16
204.975	70.36
205.211	88.25
205.446	47.93
205.682	89.37
205.918	65.25
206.153	46.54
206.389	64.41
206.625	100
206.86	82.51
207.096	65.87
207.331	88.21
207.567	122.48
207.802	43.36
208.037	62.8
208.273	60.93
208.508	68.79
208.744	95.82
208.979	64.72
209.214	78.7
209.449	113.85
209.685	83.58
209.92	59.07
210.155	41.41
210.39	81.13
210.625	45.83
210.86	76.74
211.095	73.39
211.33	89.89
211.565	109
211.8	54.08
212.035	74.17
212.27	14.29
212.505	45
212.74	68.9
212.975	65.65
213.21	82.75
213.444	93.48
213.679	72.73
213.914	70.53
214.149	127.51
214.383	130.25
214.618	55.43
214.853	79.69
215.087	57.98
215.322	33.55
215.556	35.11
215.791	102.06
216.025	90.75
216.26	63.9
216.494	106.32
216.729	60.84
216.963	82.81
217.197	73.91
217.432	58
217.666	47.18
217.9	88.83
218.135	27.48
218.369	67.47
218.603	86.59
218.837	79.25
219.071	83.88
219.306	91.8
219.54	76.61
219.774	72.96
220.008	102.82
220.242	60.21
220.476	46.73
220.71	79.41
220.944	72.69
221.178	59.29
221.411	78.03
221.645	47.23
221.879	60.55
222.113	92
222.347	90.76
222.58	109.81
222.814	64.81
223.048	112.8
223.281	61.69
223.515	60.47
223.749	82.68
223.982	78.63
224.216	62.03
224.449	100
224.683	98.87
224.916	79.51
225.15	90.68
225.383	104.55
225.617	89.95
225.85	76.69
226.083	100.34
226.317	76.41
226.55	116.55
226.783	90.63
227.016	59.14
227.25	85.44
227.483	106.42
227.716	96.34
227.949	86.57
228.182	84.13
228.415	55.45
228.648	50.68
228.881	70.28
229.114	88.56
229.347	65.11
229.58	99.42
229.813	75.95
230.046	18.81
230.279	104.34
230.512	98.88
230.745	45.33
230.977	71.47
231.21	53.63
231.443	57.87
231.675	67.31
231.908	83.56
232.141	85.9
232.373	72.46
232.606	48.18
232.839	73.65
233.071	79.25
233.304	74.37
233.536	54.95
233.769	57.32
234.001	93.48
234.233	88.89
234.466	68.56
234.698	79.08
234.93	91.71
235.163	62.84
235.395	116.67
235.627	119.38
235.86	128.87
236.092	85.66
236.324	72.51
236.556	26.39
236.788	94.23
237.02	76.74
237.252	64.21
237.484	56.36
237.716	116.82
237.948	74.75
238.18	122.18
238.412	63.66
238.644	68.95
238.876	32.58
239.108	85.58
239.34	89.44
239.571	84.22
239.803	80.29
240.035	79.47
240.267	56.55
240.498	79.87
240.73	79.16
240.962	85.61
241.193	69.85
241.425	44.11
241.656	41.79
241.888	99.2
242.119	95.06
242.351	85.96
242.582	77.46
242.814	55.74
243.045	81.25
243.277	20.46
243.508	66.92
243.739	119.94
243.971	38.61
244.202	68.78
244.433	84.89
244.664	111.24
244.896	55.89
245.127	54.91
245.358	78.67
245.589	88.73
245.82	66.88
246.051	70.59
246.282	45.52
246.513	71.07
246.744	56.16
246.975	86.9
247.206	83.03
247.437	95.77
247.668	60.37
247.899	86.05
248.129	74.11
248.36	61.46
248.591	93.42
248.822	72.22
249.052	64.64
249.283	59.11
249.514	103.15
249.744	96.67
249.975	79.5
250.206	60.05
250.436	61.56
250.667	84.57
250.897	100
251.128	54.92
251.358	36.89
251.589	81.25
251.819	82.57
252.049	84.44
252.28	127.05
252.51	65.29
252.74	38.28
252.971	68.33
253.201	78.81
253.431	87.59
253.661	53.58
253.891	76.32
254.121	88.31
254.352	94.49
254.582	99.72
254.812	57.65
255.042	130.57
255.272	75.92
255.502	62.13
255.732	75.7
255.962	70.44
256.192	95.88
256.421	127.2
256.651	84.87
256.881	52.4
257.111	42.92
257.341	69.33
257.57	120
257.8	108.27
258.03	104.95
258.259	31.46
258.489	46.29
258.719	77.59
258.948	85.9
259.178	113.75
259.407	52.94
259.637	91.08
259.866	67.81
260.096	87.53
260.325	92.84
260.555	56.74
260.784	36.96
261.013	75.72
261.243	47.94
261.472	25.76
261.701	76.87
261.931	43.38
262.16	67.76
262.389	121.99
262.618	89.71
262.847	75.86
263.076	89.74
263.305	64.82
263.535	88.19
263.764	110.85
263.993	63.92
264.222	82.35
264.451	79.87
264.679	88.32
264.908	94.21
265.137	90.09
265.366	107.6
265.595	51.9
265.824	82.63
266.053	63.34
266.281	98.52
266.51	71.12
266.739	78.44
266.967	74.47
267.196	106.29
267.425	56.44
267.653	79.37
267.882	57.78
268.11	95.89
268.339	48.98
268.567	72.64
268.796	71.46
269.024	76.47
269.253	14.7
269.481	85.95
269.709	81.23
269.938	17.36
270.166	62.97
270.394	73.04
270.623	81.79
270.851	53.19
271.079	45.85
271.307	79.66
271.535	55.81
271.764	62.99
271.992	36.33
272.22	52.67
272.448	85.64
272.676	60.7
272.904	44
273.132	70.12
273.36	82.84
273.588	105.28
273.816	73.64
274.043	77.59
274.271	75
274.499	126.05
274.727	82.97
274.955	89.96
275.182	65.38
275.41	73.04
275.638	77.46
275.866	50.2
276.093	40.43
276.321	81.7
276.548	63.84
276.776	86.51
277.003	71.65
277.231	73.13
277.458	54.35
277.686	84.62
277.913	105.9
278.141	85.09
278.368	79.3
278.595	81.66
278.823	80.88
279.05	66.6
279.277	71.68
279.505	86.65
279.732	52.03
279.959	70.05
280.186	89.2
280.413	82.13
280.641	47.25
280.868	68.04
281.095	77.69
281.322	18.21
281.549	85.71
281.776	80.86
282.003	164.96
282.23	71.76
282.457	92.59
282.683	22.09
282.91	74.95
283.137	93.1
283.364	73.36
283.591	83.88
283.818	109.52
284.044	76.06
284.271	42.46
284.498	110.61
284.724	125.91
284.951	69.48
285.178	73.35
285.404	65.89
285.631	101.43
285.857	63.04
286.084	54.1
286.31	66.17
286.537	53.69
286.763	84.41
286.99	67.81
287.216	113.83
287.442	80.46
287.669	130.67
287.895	76.71
288.121	80.5
288.347	84.92
288.574	80.68
288.8	79.2
289.026	57.46
289.252	63.31
289.478	78.54
289.704	113.11
289.931	68.13
290.157	93.54
290.383	77.39
290.609	83.79
290.835	57.53
291.06	68.94
291.286	87.01
291.512	78.21
291.738	86.26
291.964	66.5
292.19	81.31
292.416	83.96
292.641	97.4
292.867	51.47
293.093	75.18
293.319	82.23
293.544	55.04
293.77	66.05
293.995	105.43
294.221	91.72
294.447	83.79
294.672	75.04
294.898	81.16
295.123	77.75
295.349	55.04
295.574	126.27
295.799	67.89
296.025	93.73
296.25	80.79
296.476	77.02
296.701	73.05
296.926	80.18
297.151	78.36
297.377	92.88
297.602	66.32
297.827	76.51
298.052	79.11
298.277	66.77
298.502	87.54
298.727	48.76
298.953	60
299.178	61.74
299.403	28.83
299.628	102.33
299.852	62.8
300.077	62.17
300.302	74.31
300.527	64.92
300.752	66.19
300.977	72.35
301.202	94.09
301.426	60.25
301.651	52.58
301.876	90.05
302.101	77.4
302.325	79.33
302.55	85.01
302.775	68.82
302.999	50
303.224	97.92
303.448	78.1
303.673	110.56
303.897	84.11
304.122	77.03
304.346	69.8
304.571	86.21
304.795	58.64
305.019	60.21
305.244	64.24
305.468	102.82
305.692	80.98
305.917	85.71
306.141	88.33
306.365	70.3
306.589	88.28
306.813	84.64
307.038	61.25
307.262	73.41
307.486	71.56
307.71	86.89
307.934	77.39
308.158	61.27
308.382	125.18
308.606	60.49
308.83	77.85
309.054	64.21
309.278	57.58
309.502	35.09
309.725	57.68
309.949	53.7
310.173	63.74
310.397	97.38
310.62	69.84
310.844	83.22
311.068	117.84
311.292	81.04
311.515	99.48
311.739	64.24
311.962	72.36
312.186	70.8
312.41	96.35
312.633	88.91
312.857	77.15
313.08	42.03
313.303	76.12
313.527	101.55
313.75	74.17
313.974	98.91
314.197	81.47
314.42	71.91
314.644	41.94
314.867	61.93
315.09	50.37
315.313	87.53
315.536	67.47
315.76	34.41
315.983	103.46
316.206	60.84
316.429	35.59
316.652	77.32
316.875	79.6
317.098	80
317.321	89.18
317.544	93.46
317.767	50.58
317.99	121.31
318.213	104.51
318.436	67.65
318.658	70.77
318.881	64.85
319.104	47.48
319.327	92.66
319.55	77.76
319.772	82.12
319.995	74.85
320.218	59.1
320.44	106.65
320.663	64.55
320.885	74.25
321.108	61.64
321.331	59.79
321.553	70.6
321.776	74.15
321.998	70.97
322.22	81.97
322.443	86.43
322.665	72.57
322.888	110.2
323.11	76.5
323.332	70.11
323.555	53.35
323.777	142.9
323.999	72.35
324.221	95.7
324.443	78.98
324.666	86.92
324.888	57.98
325.11	65.12
325.332	58.36
325.554	74.39
325.776	78.87
325.998	67.44
326.22	99.06
326.442	89.26
326.664	48.55
326.886	106
327.108	95.72
327.33	87.2
327.551	78.59
327.773	49.12
327.995	81.89
328.217	59.55
328.439	67.2
328.66	92.49
328.882	59.75
329.104	64.92
329.325	72.23
329.547	94.21
329.769	77.16
329.99	82.9
330.212	65.03
330.433	85.5
330.655	51.1
330.876	82.78
331.098	83.71
331.319	85.71
331.54	70.15
331.762	79.09
331.983	70.91
332.204	105.47
332.426	68.49
332.647	80.13
332.868	73.49
333.089	60.08
333.311	58.59
333.532	89.44
333.753	97.84
333.974	87.76
334.195	101.95
334.416	59.44
334.637	77.39
334.858	56.86
335.079	59.06
335.3	100.18
335.521	66.09
335.742	65.61
335.963	50.65
336.184	71.95
336.405	50.5
336.626	59.32
336.846	40.82
337.067	74.87
337.288	79.15
337.509	67.73
337.729	82.83
337.95	52.93
338.171	92.39
338.391	55.14
338.612	65.57
338.833	46.32
339.053	70.68
339.274	68.17
339.494	103.23
339.715	86.8
339.935	81.36
340.156	62.89
340.376	63.32
340.596	59.75
340.817	53.02
341.037	78.2
341.257	71.69
341.478	74.91
341.698	123.5
341.918	75.31
342.138	81.19
342.359	108.31
342.579	71.45
342.799	59.78
343.019	71.96
343.239	70.04
343.459	70.9
343.679	72.77
343.899	73.32
344.119	93.97
344.339	64.77
344.559	97.11
344.779	89.64
344.999	59.1
345.219	77.68
345.439	113.42
345.658	76.99
345.878	101.82
346.098	34.83
346.318	61.08
346.537	87.09
346.757	72.45
346.977	64.77
347.196	69.53
347.416	74.32
347.636	66.55
347.855	58.76
348.075	63.71
348.294	67.2
348.514	73.19
348.733	48.42
348.953	77.02
349.172	52.03
349.392	70.97
349.611	57.92
349.83	41.75
350.05	75.37
350.269	80.77
350.488	81.37
350.707	68.63
350.927	81.25
351.146	86.56
351.365	56.29
351.584	61.75
351.803	93.12
352.023	50.86
352.242	69.56
352.461	101.84
352.68	54.63
352.899	84.71
353.118	85.12
353.337	93.04
353.556	87.05
353.775	89.31
353.993	89.42
354.212	50.49
354.431	105.76
354.65	96.15
354.869	95.34
355.088	65.67
355.306	96.44
355.525	57.37
355.744	67.05
355.962	109.07
356.181	69.41
356.4	98.33
356.618	91.97
356.837	70.62
357.055	74.67
357.274	67.82
357.492	77.44
357.711	52.16
357.929	44.63
358.148	79.43
358.366	28.52
358.585	72.47
358.803	63.81
359.021	80.81
359.24	68.24
359.458	104.37
359.676	49.01
359.894	67.91
360.113	55.36
360.331	69.4
360.549	46.2
360.767	74.07
360.985	76.39
361.203	87.28
361.421	67.8
361.639	72.44
361.857	58.35
362.075	57.82
362.293	71.93
362.511	97.07
362.729	63.79
362.947	53.15
363.165	86.54
363.383	61.69
363.601	68.73
363.819	86.07
364.036	78.79
364.254	87.01
364.472	78.54
364.689	90.37
364.907	62.47
365.125	75.1
365.342	96.78
365.56	66.5
365.778	68.35
365.995	58.2
366.213	86.63
366.43	76.41
366.648	75
366.865	56.91
367.083	61.48
367.3	85.83
367.517	87.65
367.735	60.77
367.952	72.18
368.17	115.02
368.387	65.02
368.604	65.41
368.821	55.73
369.039	67.03
369.256	51.87
369.473	50.87
369.69	49.6
369.907	57.51
370.124	118.48
370.341	63.45
370.558	66.67
370.776	72.43
370.993	75.14
371.21	69.18
371.426	72.19
371.643	73.99
371.86	62.25
372.077	72.89
372.294	61.35
372.511	61.16
372.728	93.24
372.945	61.17
373.161	58.35
373.378	68.8
373.595	79.4
373.811	55.51
374.028	80.03
374.245	43
374.461	82.66
374.678	51.74
374.895	71.19
375.111	56.67
375.328	41.28
375.544	53.2
375.761	66.72
375.977	63.43
376.194	72.79
376.41	65.64
376.626	65.29
376.843	54.19
377.059	71.62
377.275	64.73
377.492	94.62
377.708	50.18
377.924	62.59
378.14	60.09
378.357	68
378.573	63.69
378.789	66.96
379.005	54
379.221	63.51
379.437	41.52
379.653	64.27
379.869	85
380.085	80.71
380.301	70.89
380.517	66.22
380.733	65.46
380.949	61.93
381.165	64.25
381.381	63.65
381.597	68.06
381.813	63.59
382.028	60.52
382.244	58.52
382.46	47.78
382.676	65.64
382.891	57.37
383.107	46.19
383.323	60.2
383.538	54.06
383.754	60.07
383.969	63.35
384.185	66.62
384.4	60.65
384.616	49.34
384.831	52.42
385.047	39.86
385.262	68.9
385.478	62.7
385.693	71.9
385.909	44.19
386.124	63.8
386.339	48.22
386.554	66.35
386.77	63.04
386.985	59.7
387.2	38.51
387.415	60.81
387.631	49.21
387.846	45.34
388.061	61.31
388.276	51.07
388.491	47.48
388.706	45.58
388.921	59.49
389.136	60.43
389.351	41.09
389.566	37.5
389.781	37.38
389.996	40.37
390.211	49.48
390.426	54.12
390.641	43.36
390.855	53.08
391.07	46.01
391.285	41.83
391.5	48.52
391.714	51.78
391.929	36.42
392.144	32.27
392.358	27.53
392.573	41.87
392.788	50.96
393.002	47.47
393.217	43.4
393.431	35.93
393.646	38.53
393.86	32.88
394.075	35.99
394.289	39.01
394.504	51.43
394.718	34.68
394.933	34.62
395.147	27.88
395.361	26.99
395.576	31.89
395.79	27.38
396.004	34.46
396.218	33.45
396.432	37.39
396.647	32.82
396.861	31.96
397.075	37.15
397.289	24.84
397.503	38.23
397.717	27.81
397.931	30.89
398.145	30.99
398.359	26.75
398.573	31.42
398.787	29.54
399.001	30.79
399.215	27.61
399.429	24.91
399.643	25.34
399.857	23.56
400.07	18.57
400.284	32.15
400.498	25.26
400.712	26.65
400.925	29.9
401.139	24.23
401.353	32.45
401.566	22.53
401.78	24.11
401.994	27.06
402.207	21.05
402.421	26.18
402.634	27.22
402.848	18.77
403.061	23.96
403.275	21.01
403.488	21.66
403.702	19.85
403.915	21.78
404.128	20.03
404.342	18.11
404.555	18.23
404.768	23.32
404.982	16.07
405.195	22.23
405.408	18.67
405.621	16.88
405.835	18.28
406.048	16.32
406.261	19.81
406.474	19.93
406.687	17.06
406.9	15.62
407.113	14.24
407.326	18.19
407.539	19.41
407.752	17.72
407.965	14.12
408.178	16.24
408.391	16.22
408.604	15.95
408.817	14.34
409.029	15.96
409.242	14.91
409.455	15.45
409.668	14.44
409.881	15.1
410.093	14.1
410.306	16.32
410.519	14.68
410.731	15.46
410.944	14.8
411.157	14.18
411.369	14.48
411.582	16.35
411.794	16.84
412.007	16.69
412.219	14.52
412.432	15.07
412.644	14.85
412.857	15.66
413.069	15.31
413.281	14.85
413.494	14.61
413.706	14.76
413.918	15.22
414.131	15.54
414.343	15.16
414.555	13.06
414.767	14.74
414.979	14.98
415.192	14.62
415.404	15.61
415.616	14.16
415.828	15.8
416.04	14.33
416.252	15.75
416.464	14.28
416.676	13.84
416.888	15.19
417.1	12.15
417.312	16.01
417.524	14.18
417.736	14.26
417.948	13.96
418.159	15.63
418.371	15.3
418.583	14.13
418.795	13.6
419.007	15.61
419.218	15.62
419.43	15.95
419.642	15.55
419.853	14.06
420.065	16.09
420.276	15.24
420.488	15.32
420.7	15.12
420.911	14.57
421.123	14.05
421.334	15.25
421.546	15.82
421.757	14.68
421.969	15.61
422.18	15.27
422.391	16.06
422.603	16.56
422.814	15.58
423.025	15.13
423.237	16.19
423.448	15.53
423.659	17.08
423.87	16.92
424.082	17.01
424.293	15.87
424.504	16.23
424.715	15.67
424.926	16.35
425.137	17.53
425.348	18.26
425.559	16.57
425.77	17.01
425.981	16.93
426.192	19.25
426.403	17.45
426.614	17.58
426.825	17.78
427.036	18.73
427.247	18.46
427.458	18.66
427.668	18.65
427.879	17.99
428.09	19.38
428.301	19.07
428.511	19.02
428.722	19.27
428.933	19.12
429.143	20.45
429.354	21.07
429.565	19.47
429.775	20.48
429.986	21.87
430.196	20.45
430.407	22.6
430.617	21.27
430.828	21.92
431.038	23.09
431.249	23.27
431.459	22.76
431.669	24.35
431.88	23.55
432.09	24.28
432.3	23.86
432.511	24.05
432.721	23.39
432.931	25.09
433.141	25.86
433.351	25.84
433.562	24.74
433.772	26.84
433.982	26.6
434.192	26.09
434.402	27.74
434.612	27.83
434.822	28.01
435.032	28.38
435.242	30.49
435.452	28.98
435.662	30.1
435.872	31.36
436.082	31.95
436.292	31.26
436.502	32.08
436.711	33.56
436.921	32.64
437.131	34.24
437.341	35.36
437.551	34.41
437.76	36.28
437.97	34.56
438.18	37.5
438.389	36.39
438.599	38.28
438.808	39.55
439.018	39.84
439.228	39.77
439.437	41.46
439.647	41.33
439.856	43.74
440.066	42.5
440.275	43.66
440.484	45.53
440.694	46.49
440.903	46.89
441.113	48.53
441.322	49.13
441.531	51.36
441.741	51.68
441.95	52.17
442.159	54.11
442.368	53.73
442.577	54.85
442.787	57.42
442.996	56.97
443.205	59.31
443.414	59.19
443.623	60.52
443.832	63.02
444.041	62.92
444.25	64.73
444.459	66.71
444.668	68.07
444.877	69.54
445.086	71.95
445.295	72.16
445.504	72.78
445.713	73.68
445.922	75.7
446.13	76.38
446.339	78.12
446.548	77.77
446.757	80.4
446.965	81.29
447.174	83.09
447.383	84.1
447.591	83.49
447.8	85.88
448.009	87.92
448.217	89.66
448.426	89.77
448.634	90.57
448.843	88.26
449.051	90.58
449.26	94.87
449.468	92.24
449.677	93.94
449.885	93.56
450.093	93.74
450.302	95.34
450.51	94.82
450.719	96.18
450.927	97.19
451.135	97.37
451.343	96.56
451.552	97.36
451.76	96.78
451.968	96.98
452.176	95.26
452.384	93.82
452.592	95.33
452.8	94.1
453.009	93.13
453.217	91.94
453.425	92.87
453.633	91.76
453.841	90
454.049	87.9
454.257	89.77
454.464	88.24
454.672	86.03
454.88	84.38
455.088	84.06
455.296	80.05
455.504	82.91
455.711	81.56
455.919	78.04
456.127	78.19
456.335	74.29
456.542	73.41
456.75	72.14
456.958	73.11
457.165	73.15
457.373	71.57
457.581	69.48
457.788	67.09
457.996	67.32
458.203	65.44
458.411	63.77
458.618	63.15
458.826	60.38
459.033	60.79
459.24	59.41
459.448	58.27
459.655	58.36
459.863	56.42
460.07	55.02
460.277	53.55
460.484	52.96
460.692	51.34
460.899	50.82
461.106	49.77
461.313	49.1
461.52	48.71
461.728	49.39
461.935	46.93
462.142	45.44
462.349	43.86
462.556	44.81
462.763	43.67
462.97	42.55
463.177	42.03
463.384	41.78
463.591	40.61
463.798	40.62
464.005	39.51
464.212	38.29
464.418	37.67
464.625	37.31
464.832	37.2
465.039	36.44
465.246	37.05
465.452	35.37
465.659	33.37
465.866	34.49
466.072	32.93
466.279	33.06
466.486	32.58
466.692	31.64
466.899	31.12
467.105	31.15
467.312	30.15
467.519	30.15
467.725	30.16
467.931	28.7
468.138	27.55
468.344	29.08
468.551	27.66
468.757	26.54
468.964	27.51
469.17	26.96
469.376	25.94
469.583	26.74
469.789	26.13
469.995	26.09
470.201	24.94
470.408	23.62
470.614	23.88
470.82	24.9
471.026	24.15
471.232	23.37
471.438	22.94
471.644	24.04
471.85	23.52
472.056	23.79
472.262	21.58
472.468	21.81
472.674	21.59
472.88	21.94
473.086	22.18
473.292	20.79
473.498	20.32
473.704	20.81
473.91	20.14
474.116	19.74
474.321	19.46
474.527	19.01
474.733	19.34
474.939	20
475.144	19.28
475.35	18.66
475.556	17.85
475.761	17.46
475.967	18.03
476.173	18.25
476.378	18.14
476.584	17.6
476.789	17.09
476.995	17.66
477.2	16.3
477.406	17.04
477.611	17.01
477.817	17.61
478.022	17.14
478.227	15.67
478.433	16.15
478.638	16
478.843	16.42
479.049	15.45
479.254	16.14
479.459	16.15
479.664	15.01
479.87	15.55
480.075	15.43
480.28	14.48
480.485	14.97
480.69	14.62
480.895	14.44
481.1	14.59
481.306	14.51
481.511	14.04
481.716	14.74
481.921	14.46
482.126	13.67
482.33	13.25
482.535	13.4
482.74	13.67
482.945	13.8
483.15	13.13
483.355	13.63
483.56	13.42
483.765	12.65
483.969	13.65
484.174	12.81
484.379	13.04
484.583	12.79
484.788	13.06
484.993	12.48
485.197	13.07
485.402	12.54
485.607	12.91
485.811	12.63
486.016	12.45
486.22	12.75
486.425	11.91
486.629	12.36
486.834	12.81
487.038	12.22
487.243	12.06
487.447	12
487.652	11.86
487.856	11.94
488.06	12
488.265	11.81
488.469	11.47
488.673	11.5
488.877	11.35
489.082	11.99
489.286	11.38
489.49	11.34
489.694	11.22
489.898	11.63
490.102	11.69
490.307	11.44
490.511	11.16
490.715	11.01
490.919	10.76
491.123	11.01
491.327	10.92
491.531	10.87
491.735	10.47
491.939	10.76
492.143	10.7
492.346	10.33
492.55	10.45
492.754	10.29
492.958	10.7
493.162	10.52
493.366	10.1
493.569	10.45
493.773	10.69
493.977	10.91
494.18	10.37
494.384	10.3
494.588	10.07
494.791	10.18
494.995	10.15
495.199	10.22
495.402	10.14
495.606	10
495.809	9.99
496.013	10.04
496.216	9.78
496.42	9.43
496.623	9.92
496.827	9.56
497.03	9.76
497.233	9.62
497.437	9.54
497.64	9.99
497.843	9.58
498.047	9.69
498.25	9.74
498.453	9.54
498.656	9.64
498.86	9.64
499.063	9.52
499.266	9.33
499.469	9.54
499.672	9.66
499.875	9.3
500.078	9.27
500.281	9.27
500.484	9.53
500.687	9.21
500.89	9.18
501.093	9.4
501.296	9.54
501.499	9.39
501.702	9.11
501.905	9.54
502.108	9.13
502.311	8.91
502.514	9.04
502.716	9.11
502.919	9.43
503.122	9.13
503.325	9.33
503.527	9.37
503.73	9.07
503.933	9.41
504.135	9.25
504.338	9.22
504.541	8.85
504.743	8.76
504.946	9.14
505.148	9.02
505.351	8.84
505.553	9.32
505.756	9.03
505.958	8.62
506.161	8.86
506.363	8.87
506.565	8.92
506.768	8.96
506.97	8.98
507.172	8.74
507.375	8.91
507.577	9
507.779	9.2
507.982	9.02
508.184	8.73
508.386	8.86
508.588	8.83
508.79	9.1
508.993	8.82
509.195	9.08
509.397	9.25
509.599	9.13
509.801	8.93
510.003	8.8
510.205	8.79
510.407	8.93
510.609	9.1
510.811	8.69
511.013	9.3
511.215	8.98
511.417	9.01
511.618	8.92
511.82	8.76
512.022	8.78
512.224	9.09
512.426	8.61
512.627	8.82
512.829	8.88
513.031	8.74
513.233	8.91
513.434	9.07
513.636	8.93
513.838	8.73
514.039	8.76
514.241	8.98
514.442	8.75
514.644	8.77
514.845	8.86
515.047	8.9
515.248	8.83
515.45	9.05
515.651	8.66
515.853	8.96
516.054	8.65
516.256	8.99
516.457	8.98
516.658	8.84
516.86	9
517.061	8.73
517.262	8.81
517.463	8.89
517.665	8.92
517.866	9.03
518.067	9.14
518.268	9.15
518.469	8.94
518.67	8.88
518.872	9.12
519.073	8.96
519.274	8.66
519.475	9.11
519.676	9.04
519.877	9
520.078	9.17
520.279	9.25
520.48	9.17
520.681	9.11
520.881	9.13
521.082	8.98
521.283	9.1
521.484	9.33
521.685	9.15
521.886	9.13
522.086	9.21
522.287	9.4
522.488	9.24
522.689	9.31
522.889	9.21
523.09	9.39
523.291	9.37
523.491	9.42
523.692	9.27
523.892	9.48
524.093	9.48
524.294	9.28
524.494	9.41
524.695	9.67
524.895	9.35
525.096	9.63
525.296	9.75
525.496	9.45
525.697	9.48
525.897	9.73
526.098	9.52
526.298	9.7
526.498	9.64
526.699	9.84
526.899	9.58
527.099	9.78
527.299	9.69
527.499	10
527.7	9.95
527.9	9.86
528.1	10.12
528.3	10.02
528.5	10.16
528.7	10.02
528.9	9.99
529.1	10.04
529.3	10.05
529.5	10.25
529.7	10.14
529.9	10.19
530.1	10.19
530.3	10.21
530.5	10.24
530.7	10.25
530.9	10.2
531.1	10.19
531.3	10.23
531.499	10.48
531.699	10.41
531.899	10.31
532.099	10.54
532.298	10.88
532.498	10.68
532.698	10.36
532.897	10.62
533.097	10.61
533.297	10.8
533.496	10.68
533.696	10.76
533.895	10.87
534.095	10.86
534.294	10.63
534.494	11
534.693	10.92
534.893	11.06
535.092	11.3
535.292	11.18
535.491	11.13
535.69	11.07
535.89	11.2
536.089	11.24
536.288	11.47
536.488	11.55
536.687	11.4
536.886	11.47
537.085	11.47
537.285	11.68
537.484	11.76
537.683	11.7
537.882	11.59
538.081	11.65
538.28	11.65
538.479	11.68
538.678	11.89
538.877	11.82
539.076	11.99
539.275	12.14
539.474	11.99
539.673	12.08
539.872	12.03
540.071	12.14
540.27	12.22
540.469	12.39
540.668	12.36
540.867	12.45
541.065	12.4
541.264	12.56
541.463	12.55
541.662	12.58
541.861	12.61
542.059	12.87
542.258	12.77
542.457	12.78
542.655	12.87
542.854	13.1
543.052	13.09
543.251	13.26
543.45	13.19
543.648	13.35
543.847	13.41
544.045	13.25
544.244	13.52
544.442	13.55
544.641	13.62
544.839	13.73
545.037	13.66
545.236	13.88
545.434	13.82
545.632	13.82
545.831	13.82
546.029	14.01
546.227	14.06
546.426	14.24
546.624	14.26
546.822	14.28
547.02	14.32
547.218	14.37
547.417	14.67
547.615	14.72
547.813	14.75
548.011	14.83
548.209	14.91
548.407	14.92
548.605	15.06
548.803	15.11
549.001	15.33
549.199	15.21
549.397	15.26
549.595	15.31
549.793	15.49
549.991	15.54
550.189	15.73
550.387	15.52
550.584	15.83
550.782	15.83
550.98	16.18
551.178	16.05
551.376	16.24
551.573	16.23
551.771	16.4
551.969	16.75
552.166	16.46
552.364	16.79
552.562	16.79
552.759	16.91
552.957	17.08
553.154	16.92
553.352	17.3
553.55	17.35
553.747	17.44
553.945	17.35
554.142	17.56
554.339	17.75
554.537	17.83
554.734	18.07
554.932	18.22
555.129	18.19
555.326	18.35
555.524	18.38
555.721	18.62
555.918	18.62
556.116	18.71
556.313	18.85
556.51	18.81
556.707	19.06
556.904	19.26
557.102	19.37
557.299	19.41
557.496	19.67
557.693	19.91
557.89	19.86
558.087	19.93
558.284	19.93
558.481	20.25
558.678	20.25
558.875	20.4
559.072	20.6
559.269	20.65
559.466	20.94
559.663	20.93
559.86	21.09
560.057	21.4
560.254	21.38
560.45	21.42
560.647	21.82
560.844	22
561.041	22.06
561.237	22.1
561.434	22.28
561.631	22.53
561.828	22.59
562.024	22.68
562.221	22.79
562.418	22.95
562.614	23.48
562.811	23.46
563.007	23.57
563.204	23.72
563.4	24.03
563.597	24.03
563.793	24.23
563.99	24.24
564.186	24.51
564.383	24.74
564.579	24.71
564.775	24.88
564.972	25.31
565.168	25.13
565.365	25.43
565.561	25.64
565.757	25.85
565.953	25.82
566.15	26.08
566.346	26.38
566.542	26.79
566.738	26.83
566.934	26.98
567.131	27.36
567.327	27.49
567.523	27.59
567.719	27.75
567.915	28.13
568.111	28.12
568.307	28.49
568.503	28.67
568.699	28.85
568.895	28.84
569.091	29.18
569.287	29.42
569.483	29.68
569.679	30.23
569.875	30.2
570.07	30.5
570.266	30.72
570.462	30.85
570.658	31.29
570.854	31.35
571.049	31.57
571.245	31.59
571.441	32.03
571.636	32.18
571.832	32.54
572.028	32.59
572.223	32.81
572.419	32.82
572.615	33.31
572.81	33.58
573.006	33.73
573.201	33.91
573.397	34.32
573.592	34.76
573.788	35.01
573.983	35.2
574.179	35.36
574.374	35.82
574.569	35.77
574.765	36.18
574.96	36.47
575.156	36.63
575.351	36.88
575.546	37.21
575.741	37.31
575.937	37.78
576.132	38.07
576.327	38.39
576.522	38.71
576.718	39.03
576.913	39.35
577.108	39.4
577.303	39.68
577.498	40.2
577.693	40.42
577.888	40.69
578.083	40.86
578.278	41.13
578.473	41.39
578.668	41.68
578.863	42.14
579.058	42.4
579.253	42.87
579.448	43.21
579.643	43.62
579.838	43.86
580.033	43.97
580.227	44.52
580.422	44.7
580.617	45.11
580.812	45.53
581.006	45.63
581.201	46.02
581.396	46.2
581.591	46.67
581.785	46.98
581.98	47.12
582.175	47.62
582.369	47.84
582.564	48.45
582.758	48.84
582.953	49.14
583.147	49.07
583.342	49.56
583.536	50.11
583.731	50.34
583.925	50.41
584.12	50.84
584.314	51.19
584.509	51.74
584.703	52.38
584.897	52.5
585.092	52.99
585.286	53.41
585.48	53.74
585.674	54.38
585.869	54.51
586.063	54.93
586.257	54.93
586.451	55.76
586.646	56.05
586.84	56.23
587.034	56.65
587.228	57.29
587.422	57.43
587.616	57.88
587.81	57.98
588.004	58.59
588.198	59.22
588.392	59.45
588.586	59.86
588.78	60.4
588.974	60.63
589.168	60.92
589.362	61.47
589.556	61.63
589.75	62.22
589.944	62.44
590.137	62.99
590.331	63.32
590.525	63.47
590.719	64.3
590.913	64.64
591.106	65.1
591.3	65.41
591.494	65.83
591.687	66.44
591.881	66.9
592.075	66.94
592.268	67.33
592.462	67.76
592.655	68.23
592.849	68.59
593.043	69.17
593.236	69.45
593.43	69.81
593.623	70.51
593.817	71.05
594.01	71.31
594.203	71.31
594.397	71.69
594.59	72.53
594.784	72.52
594.977	73.12
595.17	73.55
595.364	73.85
595.557	74.43
595.75	74.81
595.943	75.33
596.137	75.73
596.33	76.06
596.523	76.71
596.716	76.99
596.909	77.29
597.102	77.32
597.296	78.18
597.489	78.68
597.682	78.45
597.875	79.37
598.068	79.71
598.261	79.84
598.454	80.12
598.647	81.04
598.84	81
599.033	81.67
599.226	82.15
599.419	82.24
599.611	82.68
599.804	83.04
599.997	83.3
600.19	83.67
600.383	84.22
600.576	84.96
600.768	84.87
600.961	85.33
601.154	85.77
601.347	86.28
601.539	86.73
601.732	86.84
601.925	87.06
602.117	87.54
602.31	88.25
602.502	88.22
602.695	88.6
602.888	88.87
603.08	89.24
603.273	89.79
603.465	89.85
603.658	90.17
603.85	90.37
604.043	91.17
604.235	91.36
604.427	91.73
604.62	91.67
604.812	92.21
605.004	92.7
605.197	93.02
605.389	93.07
605.581	93.31
605.774	93.49
605.966	94.1
606.158	94.35
606.35	94.87
606.543	94.71
606.735	95.48
606.927	95.66
607.119	96.06
607.311	95.83
607.503	95.97
607.695	96.58
607.887	96.67
608.079	96.78
608.271	96.63
608.463	97.08
608.655	97.32
608.847	97.49
609.039	98.12
609.231	98.59
609.423	98.47
609.615	98.75
609.807	99.01
609.999	98.99
610.191	99.38
610.382	99.61
610.574	99.91
610.766	99.94
610.958	100.19
611.15	100.73
611.341	100.64
611.533	100.75
611.725	101.12
611.916	100.84
612.108	101.53
612.3	101.44
612.491	101.94
612.683	101.81
612.874	102.55
613.066	102.42
613.257	102.73
613.449	103.22
613.64	103.06
613.832	103.26
614.023	103.42
614.215	103.72
614.406	103.47
614.598	103.69
614.789	104.01
614.98	103.78
615.172	104.4
615.363	103.87
615.554	104.08
615.746	104.19
615.937	104.88
616.128	104.68
616.319	104.56
616.511	104.94
616.702	105.03
616.893	105.09
617.084	104.92
617.275	105.41
617.466	104.92
617.658	105.47
617.849	105.5
618.04	105.59
618.231	105.59
618.422	105.73
618.613	105.85
618.804	106.08
618.995	106.13
619.186	106.14
619.377	107.02
619.568	106.29
619.758	106.31
619.949	106.31
620.14	106.35
620.331	106.58
620.522	106.4
620.713	106.85
620.903	106.76
621.094	106.69
621.285	106.49
621.476	106.85
621.666	107.05
621.857	106.93
622.048	106.55
622.238	107.18
622.429	106.49
622.62	106.57
622.81	106.91
623.001	107.28
623.191	106.95
623.382	106.98
623.572	106.83
623.763	106.93
623.953	107.09
624.144	106.99
624.334	107.2
624.525	107.02
624.715	107.54
624.905	106.89
625.096	107.3
625.286	107.18
625.477	107.33
625.667	107
625.857	107.02
626.047	107.31
626.238	107.22
626.428	106.82
626.618	107.44
626.808	106.98
626.999	107.06
627.189	106.82
627.379	107.01
627.569	107.12
627.759	107.04
627.949	107.08
628.139	106.95
628.329	106.99
628.519	106.94
628.709	107.19
628.899	107.29
629.089	106.84
629.279	106.76
629.469	106.81
629.659	106.65
629.849	106.38
630.039	106.67
630.229	106.5
630.419	106.46
630.609	106.28
630.798	106.46
630.988	106.63
631.178	106.5
631.368	106.22
631.557	106.39
631.747	106
631.937	106.63
632.127	106.25
632.316	106.08
632.506	106.13
632.696	106.11
632.885	105.99
633.075	106.25
633.264	106.04
633.454	106.1
633.643	106
633.833	105.87
634.022	105.87
634.212	105.98
634.401	105.66
634.591	105.75
634.78	105.01
634.97	105.28
635.159	105.43
635.348	105.47
635.538	105.25
635.727	105.43
635.916	105.4
636.106	105.46
636.295	105.55
636.484	105.41
636.674	105.23
636.863	105.47
637.052	105.14
637.241	105.18
637.43	105.55
637.619	105.32
637.809	105.39
637.998	105.27
638.187	105.36
638.376	105.14
638.565	104.94
638.754	104.82
638.943	104.68
639.132	104.95
639.321	104.72
639.51	105.14
639.699	104.88
639.888	104.89
640.077	105.14
640.266	104.6
640.455	104.63
640.643	104.99
640.832	104.89
641.021	104.7
641.21	104.38
641.399	104.61
641.587	104.63
641.776	104.73
641.965	104.22
642.154	104.55
642.342	104.19
642.531	104.13
642.72	104.19
642.908	104.16
643.097	103.98
643.286	104.33
643.474	104.09
643.663	104.23
643.851	103.66
644.04	103.76
644.228	103.63
644.417	103.53
644.605	103.99
644.794	103.73
644.982	103.73
645.171	103.44
645.359	103.52
645.547	103.5
645.736	103.62
645.924	103.35
646.112	103.5
646.301	103.64
646.489	103.41
646.677	103.34
646.866	103.59
647.054	103.3
647.242	103.63
647.43	103.32
647.618	103.3
647.807	103.28
647.995	103.41
648.183	103.42
648.371	103
648.559	103.29
648.747	102.77
648.935	103.16
649.123	103.29
649.311	103.17
649.499	103.28
649.687	103.2
649.875	103.02
650.063	103.2
650.251	102.99
650.439	102.9
650.627	103.15
650.815	102.87
651.003	102.66
651.191	102.68
651.378	102.65
651.566	102.59
651.754	102.65
651.942	102.7
652.13	102.72
652.317	102.36
652.505	102.29
652.693	102.35
652.88	102.06
653.068	102.27
653.256	102.27
653.443	102.55
653.631	102.27
653.819	102.01
654.006	102.57
654.194	102.41
654.381	102.2
654.569	102.27
654.756	102.4
654.944	102.49
655.131	102.25
655.319	102.55
655.506	102.58
655.693	102.36
655.881	102.62
656.068	102.04
656.256	102.19
656.443	102.56
656.63	102.26
656.818	102.22
657.005	102.09
657.192	102.23
657.379	102.49
657.567	102.3
657.754	102.28
657.941	101.92
658.128	102.03
658.315	102.28
658.502	102.1
658.69	102.11
658.877	101.83
659.064	102.12
659.251	102.09
659.438	102.06
659.625	101.65
659.812	102.22
659.999	101.86
660.186	101.64
660.373	101.64
660.56	101.64
660.747	101.67
660.934	101.79
661.121	102.05
661.308	102.17
661.494	101.86
661.681	101.85
661.868	101.73
662.055	102
662.242	101.86
662.428	101.94
662.615	102.14
662.802	102.24
662.989	102.19
663.175	102.14
663.362	101.89
663.549	102.29
663.735	102.04
663.922	102.3
664.109	101.92
664.295	102.17
664.482	101.87
664.668	101.67
664.855	101.84
665.041	101.61
665.228	101.72
665.414	101.8
665.601	102.04
665.787	101.93
665.974	102.46
666.16	102.21
666.347	101.96
666.533	102.13
666.719	102.27
666.906	101.74
667.092	101.96
667.278	102.18
667.465	102.06
667.651	102.45
667.837	102.42
668.023	102.37
668.21	102.39
668.396	101.97
668.582	102.28
668.768	102.13
668.954	102.41
669.14	102.05
669.327	102.15
669.513	102.18
669.699	102.03
669.885	102.48
670.071	101.88
670.257	101.82
670.443	102.19
670.629	102.1
670.815	102.03
671.001	102.09
671.187	102.01
671.373	102.07
671.559	102.13
671.744	102.32
671.93	102.41
672.116	102.18
672.302	102.19
672.488	101.75
672.674	102.28
672.859	102.1
673.045	102.19
673.231	102.34
673.417	102.34
673.602	102.66
673.788	101.92
673.974	102.26
674.159	102.23
674.345	102.55
674.531	102.39
674.716	102.43
674.902	102.68
675.087	102.34
675.273	102.49
675.459	102.42
675.644	102.11
675.83	102.3
676.015	102.48
676.2	102.56
676.386	102.44
676.571	102.8
676.757	102.58
676.942	102.36
677.128	102.31
677.313	102.8
677.498	102.45
677.684	102.57
677.869	102.64
678.054	102.61
678.24	102.7
678.425	102.78
678.61	102.69
678.795	102.99
678.98	102.86
679.166	103.3
679.351	103.23
679.536	102.89
679.721	102.74
679.906	102.76
680.091	102.99
680.276	102.74
680.461	102.9
680.647	102.55
680.832	102.8
681.017	102.71
681.202	102.85
681.387	102.68
681.572	102.97
681.756	103.14
681.941	103.19
682.126	103.13
682.311	103.27
682.496	103.42
682.681	102.93
682.866	103.23
683.051	103.01
683.235	102.86
683.42	103.19
683.605	103.13
683.79	103.67
683.974	103.28
684.159	102.96
684.344	103.12
684.529	102.94
684.713	103.24
684.898	102.9
685.083	103.43
685.267	103.43
685.452	103.55
685.636	103.49
685.821	103.63
686.005	103.16
686.19	103.27
686.375	103.22
686.559	102.96
686.744	103.45
686.928	103.48
687.112	103.06
687.297	103.41
687.481	103.3
687.666	103.19
687.85	103.46
688.034	103.23
688.219	102.89
688.403	102.84
688.587	103.1
688.772	103.18
688.956	103.17
689.14	103.24
689.324	103.48
689.509	103.14
689.693	103.48
689.877	103.44
690.061	103.58
690.245	103.37
690.43	103.12
690.614	103.39
690.798	102.84
690.982	103.58
691.166	103.45
691.35	103.25
691.534	103.08
691.718	103.23
691.902	103.14
692.086	103.26
692.27	103.09
692.454	103.6
692.638	103.57
692.822	103.33
693.006	103.39
693.19	103.37
693.373	103.19
693.557	103.23
693.741	103.66
693.925	103.12
694.109	103.44
694.293	102.92
694.476	103
694.66	102.95
694.844	103.19
695.027	103.25
695.211	103.28
695.395	103.58
695.578	103.34
695.762	103.23
695.946	103.05
696.129	102.93
696.313	103.38
696.497	103.26
696.68	103.49
696.864	103.19
697.047	103.22
697.231	102.96
697.414	103.16
697.598	103.04
697.781	103.38
697.965	103.52
698.148	103.34
698.331	103.92
698.515	103.61
698.698	103.58
698.881	103.38
699.065	103.19
699.248	103.32
699.431	103.45
699.615	103.17
699.798	103.24
699.981	103.32
700.165	103.25
700.348	103.13
700.531	102.65
700.714	102.84
700.897	102.74
701.08	102.77
701.264	102.77
701.447	102.65
701.63	102.81
701.813	102.55
701.996	102.73
702.179	103.4
702.362	102.83
702.545	102.79
702.728	102.89
702.911	103.18
703.094	102.84
703.277	103.28
703.46	103.14
703.643	102.77
703.826	103.2
704.009	103.16
704.191	103.04
704.374	103.12
704.557	102.59
704.74	102.87
704.923	102.74
705.106	102.92
705.288	102.94
705.471	102.38
705.654	102.9
705.837	102.69
706.019	102.74
706.202	102.81
706.385	102.9
706.567	102.29
706.75	102.53
706.932	102.43
707.115	102.4
707.298	102.42
707.48	102.94
707.663	102.61
707.845	102.9
708.028	102.58
708.21	102.73
708.393	102.72
708.575	101.89
708.758	102.05
708.94	101.76
709.123	102.02
709.305	101.92
709.487	102.05
709.67	102.14
709.852	102.13
710.034	101.96
710.217	101.86
710.399	102.13
710.581	101.94
710.764	101.83
710.946	101.62
711.128	101.85
711.31	102.05
711.492	101.78
711.675	101.79
711.857	101.82
712.039	101.5
712.221	101.62
712.403	101.22
712.585	101.82
712.767	101.55
712.949	101.7
713.131	101.59
713.314	101.44
713.496	101.1
713.678	101.11
713.86	101.1
714.041	101.54
714.223	101.18
714.405	100.75
714.587	100.59
714.769	101.07
714.951	100.46
715.133	100.95
715.315	100.9
715.497	100.94
715.678	100.86
715.86	100.91
716.042	100.87
716.224	100.68
716.406	100.53
716.587	100.66
716.769	100.71
716.951	100.38
717.132	100.78
717.314	100.2
717.496	100.53
717.677	100.36
717.859	100.07
718.041	100.5
718.222	100.66
718.404	100.06
718.585	100.22
718.767	99.92
718.948	100.19
719.13	100.47
719.311	99.68
719.493	100.05
719.674	100.13
719.856	100.27
720.037	100.38
720.219	100.11
720.4	100.28
720.581	100.11
720.763	99.86
720.944	99.89
721.125	99.66
721.307	99.54
721.488	99.38
721.669	99.75
721.85	99.45
722.032	99.63
722.213	99.44
722.394	99.3
722.575	99.01
722.756	99.1
722.938	98.68
723.119	98.55
723.3	98.83
723.481	99.14
723.662	98.73
723.843	98.58
724.024	98.69
724.205	98.86
724.386	98.71
724.567	98.21
724.748	98.38
724.929	98.26
725.11	98.26
725.291	98.03
725.472	98.29
725.653	98.06
725.834	98.02
726.015	97.8
726.196	97.74
726.377	97.59
726.557	97.08
726.738	97.24
726.919	97.18
727.1	97.02
727.281	97.62
727.461	96.66
727.642	97.55
727.823	96.9
728.004	96.85
728.184	97.14
728.365	96.73
728.546	96.93
728.726	97.07
728.907	96.72
729.087	96.81
729.268	96.93
729.449	96.54
729.629	96.48
729.81	96.46
729.99	96.31
730.171	96.2
730.351	96.06
730.532	96.15
730.712	95.91
730.893	96.04
731.073	96.48
731.253	96.08
731.434	95.98
731.614	95.55
731.795	95.8
731.975	95.84
732.155	95.65
732.336	95.23
732.516	95.8
732.696	95.31
732.876	95.23
733.057	95.39
733.237	94.63
733.417	95.18
733.597	95.13
733.778	95.35
733.958	95.03
734.138	94.82
734.318	94.88
734.498	95.01
734.678	94.8
734.858	95.09
735.038	94.53
735.218	94.59
735.398	94.56
735.579	94.41
735.759	94.55
735.939	94.29
736.119	94.12
736.298	94.38
736.478	93.96
736.658	93.93
736.838	93.93
737.018	93.78
737.198	93.83
737.378	93.88
737.558	93.9
737.738	93.75
737.917	93.71
738.097	93.14
738.277	93.39
738.457	93.02
738.637	93.04
738.816	92.84
738.996	93.27
739.176	92.88
739.355	93.3
739.535	92.67
739.715	92.74
739.894	92.71
740.074	92.5
740.254	92.27
740.433	92.82
740.613	92.48
740.792	92.57
740.972	92.34
741.151	91.79
741.331	92.19
741.51	91.7
741.69	92.31
741.869	91.87
742.049	91.79
742.228	91.68
742.408	91.54
742.587	91.69
742.766	91.27
742.946	91.33
743.125	91.21
743.305	91.38
743.484	91.07
743.663	91.49
743.842	90.95
744.022	91.36
744.201	90.46
744.38	90.44
744.56	90.76
744.739	90.81
744.918	90.42
745.097	90.67
745.276	90.26
745.455	90.17
745.635	89.79
745.814	89.71
745.993	90.3
746.172	89.93
746.351	90.26
746.53	90.36
746.709	89.9
746.888	90.42
747.067	89.87
747.246	89.59
747.425	90.33
747.604	89.81
747.783	89.6
747.962	89.51
748.141	89.36
748.32	89.25
748.499	89.1
748.677	89.37
748.856	88.8
749.035	89.19
749.214	88.75
749.393	89.04
749.572	88.59
749.75	88.61
749.929	88.31
750.108	88.59
750.287	88.72
750.465	88.67
750.644	88.29
750.823	88.55
751.001	88.86
751.18	88.24
751.359	87.99
751.537	88.11
751.716	88.13
751.894	88.34
752.073	87.8
752.251	87.94
752.43	88.06
752.609	87.7
752.787	87.51
752.966	87.74
753.144	87.74
753.322	87.49
753.501	87.72
753.679	87.63
753.858	87.64
754.036	87.52
754.215	87.04
754.393	87.39
754.571	87.58
754.75	86.89
754.928	86.99
755.106	86.76
755.284	87.15
755.463	87
755.641	87.14
755.819	86.88
755.997	86.66
756.176	85.86
756.354	86.38
756.532	86.62
756.71	86.55
756.888	86.39
757.066	86.56
757.245	85.97
757.423	86.23
757.601	85.99
757.779	85.66
757.957	86.08
758.135	86.17
758.313	85.97
758.491	85.81
758.669	85.72
758.847	85.81
759.025	86.12
759.203	85.1
759.381	85.39
759.559	85.54
759.737	85.2
759.915	85.28
760.092	85.29
760.27	84.7
760.448	85.07
760.626	85.58
760.804	84.85
760.981	84.96
761.159	85.04
761.337	84.76
761.515	85.17
761.692	85.14
761.87	84.58
762.048	84.84
762.226	84.61
762.403	84.01
762.581	84.43
762.759	84.75
762.936	84.85
763.114	84.68
763.291	84.37
763.469	84.52
763.647	84.21
763.824	84.13
764.002	84.7
764.179	83.82
764.357	83.99
764.534	83.88
764.712	83.99
764.889	83.63
765.066	84.22
765.244	84.35
765.421	83.97
765.599	83.8
765.776	84.29
765.953	83.49
766.131	83.98
766.308	83.34
766.485	83.84
766.663	83.67
766.84	83.73
767.017	83.27
767.194	83.13
767.372	83.19
767.549	82.76
767.726	83.14
767.903	83.12
768.081	83.03
768.258	82.9
768.435	82.8
768.612	82.53
768.789	82.67
768.966	82.18
769.143	82.32
769.32	82.2
769.497	82.14
769.674	82.15
769.851	82.63
770.028	82.73
770.205	82.29
770.382	82.2
770.559	81.46
770.736	82.23
770.913	82.04
771.09	81.59
771.267	81.15
771.444	81.71
771.621	81.57
771.798	81.11
771.975	81.59
772.151	81.19
772.328	81.2
772.505	81.18
772.682	81.38
772.859	80.68
773.035	80.8
773.212	81.24
773.389	81.17
773.565	80.81
773.742	81.52
773.919	81.04
774.096	81.4
774.272	81.78
774.449	81.47
774.625	80.88
774.802	81.02
774.979	81.14
775.155	80.94
775.332	80.34
775.508	81.18
775.685	81.23
775.861	81.3
776.038	80.85
776.214	80.67
776.391	81.27
776.567	80.38
776.744	80.78
776.92	80.52
777.096	80.2
777.273	81.07
777.449	79.74
777.626	79.89
777.802	80.74
777.978	80.21
778.155	79.61
778.331	79.87
778.507	79.5
778.683	79.91
778.86	79.93
779.036	79.7
779.212	79.69
779.388	80
779.565	80.23
779.741	79.28
779.917	79.19
780.093	79.68
780.269	79.24
780.445	79.81
780.621	80.27
780.797	80.36
780.974	80.43
781.15	79.63
781.326	79.69
781.502	79.74
781.678	79.64
781.854	79.16
782.03	79.33
782.206	78.04
782.382	78.8
782.558	78.93
782.733	79.64
782.909	78.2
783.085	78.34
783.261	79.66
783.437	79.23
783.613	78.85
783.789	78.61
783.965	78.59
784.14	79.05
784.316	79.13
784.492	78.71
784.668	79.26
784.843	79.05
785.019	78.5
785.195	78.27
785.371	77.84
785.546	78.72
785.722	78.62
785.898	77.87
786.073	78.97
786.249	79.54
786.424	78.73
786.6	79.08
786.776	79.34
786.951	78.78
787.127	78.89
787.302	79
787.478	78.78
787.653	78.06
787.829	79.02
788.004	78.33
788.18	77.49
788.355	78.16
788.531	78.05
788.706	77.65
788.881	78.02
789.057	78.46
789.232	79.27
789.408	78.28
789.583	78.1
789.758	78.98
789.934	77.71
790.109	76.84
790.284	77.09
790.459	77.49
790.635	76.93
790.81	78.14
790.985	77.71
791.16	77.6
791.336	78.45
791.511	78.34
791.686	78.48
791.861	76.95
792.036	77.82
792.211	77.9
792.387	78.47
792.562	77.14
792.737	77.6
792.912	77.91
793.087	78.31
793.262	77.23
793.437	77.75
793.612	78.01
793.787	77.55
793.962	77.89
794.137	78.56
794.312	77.59
794.487	77.36
794.662	77.41
794.837	77.26
795.011	76.92
795.186	77.52
795.361	77.67
795.536	77.41
795.711	77.06
795.886	77.58
796.06	78.16
796.235	77.45
796.41	78.01
796.585	78.47
796.76	78.32
796.934	77.29
797.109	77.16
797.284	76.4
797.458	76.75
797.633	77.66
797.808	77.56
797.982	77.33
798.157	76.8
798.332	77.29
798.506	79.32
798.681	77.99
798.855	78.48
799.03	77.47
799.204	77.23
799.379	77.35
799.553	77.06
799.728	77.8
799.902	76.86
800.077	78.46
800.251	77.88
800.426	77.43
800.6	77.28
800.775	77.02
800.949	77.57
801.123	77.88
801.298	76.79
801.472	77.84
801.647	78.11
801.821	78.54
801.995	77.01
802.169	76.7
802.344	77.89
802.518	76.54
802.692	76.5
802.867	77.93
803.041	76.18
803.215	77.67
803.389	76.97
803.563	77.43
803.737	76.6
803.912	77.93
804.086	77.1
804.26	76.6
804.434	78.31
804.608	76.96
804.782	77.44
804.956	77.09
805.13	77.2
805.304	75.56
805.478	77.29
805.652	75.92
805.826	76.04
806	76.67
806.174	76.79
806.348	75.84
806.522	76.74
806.696	77.44
806.87	78.77
807.044	76.32
807.218	76.64
807.392	77.32
807.566	76.87
807.739	75.94
807.913	76.29
808.087	76.28
808.261	75.91
808.435	76.48
808.608	75.3
808.782	76.74
808.956	77.43
809.13	76.23
809.303	78.08
809.477	78.06
809.651	76.76
809.824	75.54
809.998	77.08
810.172	75.98
810.345	76.15
810.519	76.79
810.692	77.33
810.866	77.1
811.04	76.48
811.213	76.11
811.387	75.58
811.56	76.72
811.734	74.56
811.907	76.05
812.081	76.2
812.254	76.23
812.428	76.65
812.601	75.36
812.774	76.01
812.948	77.03
813.121	77.1
813.295	76.42
813.468	77.13
813.641	75.72
813.815	75.01
813.988	75.13
814.161	75.76
814.335	76.71
814.508	77.18
814.681	76.36
814.854	75.49
815.028	74.86
815.201	76.49
815.374	76.6
815.547	75.86
815.72	76
815.894	76.21
816.067	76.88
816.24	74.98
816.413	75.1
816.586	77.2
816.759	76.09
816.932	76.45
817.105	75.91
817.278	75.32
817.452	74.55
817.625	76.31
817.798	74.66
817.971	76.28
818.144	76.54
818.317	77.01
818.49	75.63
818.662	75.46
818.835	75.27
819.008	75.01
819.181	76.77
819.354	76.36
819.527	76.09
819.7	74.98
819.873	76.18
820.046	76.22
820.218	75.91
820.391	78.64
820.564	76.39
820.737	75.7
820.909	75.67
821.082	76.05
821.255	74.31
821.428	75.96
821.6	75.87
821.773	75.44
821.946	77.52
822.118	75.5
822.291	75.5
822.464	75.95
822.636	75.61
822.809	75.32
822.982	76.28
823.154	75.28
823.327	74.74
823.499	75.82
823.672	75.15
823.844	76.35
824.017	76.41
824.189	75.51
824.362	76.39
824.534	76.65
824.707	75.71
824.879	75.05
825.052	78.1
825.224	78.3
825.396	75.83
825.569	76.24
825.741	75.79
825.914	76.08
826.086	76.92
826.258	76.56
826.431	76.8
826.603	76.17
826.775	76.81
826.947	76.88
827.12	76.77
827.292	76.73
827.464	77.47
827.636	76.88
827.809	75.87
827.981	76.98
828.153	75.9
828.325	77.18
828.497	75.23
828.669	76.52
828.842	76.72
829.014	77.23
829.186	75.49
829.358	76.15
829.53	76.18
829.702	77.65
829.874	76.79
830.046	77.41
830.218	78.75
830.39	75.45
830.562	76.91
830.734	76.04
830.906	76.2
831.078	78.86
831.25	75.45
831.422	76.57
831.594	77.81
831.766	75.7
831.937	77.3
832.109	77.66
832.281	77.69
832.453	75.68
832.625	77.75
832.797	76.36
832.968	76.79
833.14	78.33
833.312	77.37
833.484	77.5
833.655	78.02
833.827	76.9
833.999	77.41
834.171	77.63
834.342	78.46
834.514	77.03
834.686	77.92
834.857	77.54
835.029	76.64
835.2	76.7
835.372	76.13
835.544	75.32
835.715	76.58
835.887	77.28
836.058	77.11
836.23	77.02
836.401	77.37
836.573	78.96
836.744	75.55
836.916	77.64
837.087	76.56
837.259	78.12
837.43	78.77
837.602	75.34
837.773	77.95
837.945	77.27
838.116	79.83
838.287	77.31
838.459	75.73
838.63	78.1
838.801	78.18
838.973	76.67
839.144	77.33
839.315	76.06
839.487	77.11
839.658	76.07
839.829	78.46
840	78.34
840.172	78.87
840.343	76.75
840.514	76.95
840.685	77.03
840.856	77.92
841.027	78.43
841.199	76.76
841.37	77.46
841.541	76.48
841.712	77.7
841.883	78.55
842.054	77.23
842.225	78.03
842.396	79.13
842.567	78.94
842.738	77.95
842.909	76.27
843.08	76.66
843.251	77.43
843.422	78.62
843.593	77.74
843.764	76.47
843.935	79.23
844.106	77.12
844.277	78.91
844.448	77.33
844.619	78.01
844.79	77.5
844.96	78.42
845.131	77.01
845.302	79.49
845.473	80.05
845.644	79.19
845.814	78.3
845.985	76.98
846.156	77.5
846.327	77.96
846.497	79.26
846.668	79.51
846.839	78.62
847.01	80.66
847.18	78.15
847.351	78.27
847.522	80.5
847.692	76.29
847.863	79.07
848.033	80.79
848.204	78.55
848.375	78.44
848.545	77.65
848.716	79.26
848.886	78.75
849.057	79.22
849.227	78.84
849.398	77.84
849.568	78.42
849.739	78.89
849.909	79.63
850.08	79.2
850.25	80.48
850.421	80.04
850.591	78.46
850.761	78.9
850.932	79.67
851.102	81.77
851.272	78.71
851.443	80.63
851.613	80.18
851.783	81.62
851.954	77.89
852.124	80.59
852.294	78.38
852.465	80.01
852.635	80.06
852.805	81.8
852.975	80.06
853.145	81.78
853.316	78.54
853.486	82.57
853.656	80.6
853.826	80.3
853.996	80.18
854.166	79.22
854.337	80.26
854.507	80.58
854.677	78.61
854.847	80.61
855.017	81.54
855.187	80
855.357	80.52
855.527	78.61
855.697	81.96
855.867	78.85
856.037	82.85
856.207	80.61
856.377	78.09
856.547	81.61
856.717	79.7
856.887	83.55
857.057	83.28
857.227	79.51
857.397	78.87
857.566	83.66
857.736	81.83
857.906	81.72
858.076	81.03
858.246	80.55
858.416	80.07
858.585	83.76
858.755	78.92
858.925	81.65
859.095	79.94
859.264	80.4
859.434	83.18
859.604	81.92
859.774	80.67
859.943	81.54
860.113	79.36
860.283	83.06
860.452	81.82
860.622	84.93
860.791	80.25
860.961	82.07
861.131	80.61
861.3	81.37
861.47	84.23
861.639	83.39
861.809	80.43
861.978	83.95
862.148	80.7
862.318	82.78
862.487	79.75
862.657	81.4
862.826	82.07
862.995	84.58
863.165	84.05
863.334	82.03
863.504	80.01
863.673	84.76
863.843	81.16
864.012	81.59
864.181	80.84
864.351	81.85
864.52	78.81
864.689	83.28
864.859	84.08
865.028	81.57
865.197	83.25
865.366	85.07
865.536	79.44
865.705	84.08
865.874	82.87
866.043	83.32
866.213	81.54
866.382	82.14
866.551	81.81
866.72	83.4
866.889	80.09
867.059	82.66
867.228	84.95
867.397	81.36
867.566	84.52
867.735	81.02
867.904	81.23
868.073	83.96
868.242	84.62
868.411	86.02
868.58	85.02
868.749	80.54
868.918	82.98
869.087	81.89
869.256	84.23
869.425	83.94
869.594	80.97
869.763	83.92
869.932	81.38
870.101	85.12
870.27	83.61
870.439	81.42
870.608	83.18
870.777	83.1
870.945	84.19
871.114	86.07
871.283	82.66
871.452	85.55
871.621	82.16
871.789	85.89
871.958	86.09
872.127	80.24
872.296	84.41
872.464	83.53
872.633	83.76
872.802	82.94
872.971	84.84
873.139	82.45
873.308	81.09
873.477	86.89
873.645	84.92
873.814	79.97
873.983	85.18
874.151	85.74
874.32	85.31
874.488	81.64
874.657	84.79
874.826	83.87
874.994	87.64
875.163	87.75
875.331	83.18
875.5	82.76
875.668	84.64
875.837	84.93
876.005	80.98
876.174	82.4
876.342	84.76
876.51	83.07
876.679	87.54
876.847	86.17
877.016	85.18
877.184	82.35
877.352	83.68
877.521	85.83
877.689	88.24
877.857	81.56
878.026	83.46
878.194	85.54
878.362	86.95
878.531	84.3
878.699	86.43
878.867	82.37
879.036	88.11
879.204	86.77
879.372	85.13
879.54	82.34
879.708	84.55
879.877	86.33
880.045	83.22
880.213	81.83
880.381	86.57
880.549	89.31
880.717	82.25
880.885	84.59
881.054	88.1
881.222	81.82
881.39	89.79
881.558	83.51
881.726	87.52
881.894	84.54
882.062	84.13
882.23	92.68
882.398	82.92
882.566	91.28
882.734	81.87
882.902	91.55
883.07	88.32
883.238	87.97
883.406	89.07
883.574	89.36
883.741	89.36
883.909	88.98
884.077	81.04
884.245	86.97
884.413	88.13
884.581	81.97
884.749	87.54
884.916	86.99
885.084	91.48
885.252	89.55
885.42	89.28
885.587	85.89
885.755	86.2
885.923	85.74
886.091	84.78
886.258	87.04
886.426	88.28
886.594	82.44
886.761	88.71
886.929	84.21
887.097	84.06
887.264	87.8
887.432	88.44
887.6	81.95
887.767	85.8
887.935	90.04
888.102	88.17
888.27	84.71
888.438	89.14
888.605	84.43
888.773	84.85
888.94	83.17
889.108	87.53
889.275	87.35
889.443	83.68
889.61	82.21
889.778	89.52
889.945	87.68
890.112	86.27
890.28	93.49
890.447	84.91
890.615	88.06
890.782	89.94
890.949	79.21
891.117	84.6
891.284	85.27
891.452	96.2
891.619	89.16
891.786	83.9
891.953	80.59
892.121	82.1
892.288	90.76
892.455	89.41
892.623	91.77
892.79	88.42
892.957	91.77
893.124	84.66
893.291	86.25
893.459	90.77
893.626	89.34
893.793	90.12
893.96	80.54
894.127	91.38
894.294	89.8
894.461	89.99
894.629	87.85
894.796	85.63
894.963	87.8
895.13	87.69
895.297	86.41
895.464	86.58
895.631	89.73
895.798	87.65
895.965	88.9
896.132	86.72
896.299	87.95
896.466	94.57
896.633	88.83
896.8	85.33
896.967	90.49
897.134	90.01
897.301	87.03
897.467	93.89
897.634	91.93
897.801	91.03
897.968	89.84
898.135	83.16
898.302	85.28
898.469	91.51
898.635	86.38
898.802	86.56
898.969	82.97
899.136	91.89
899.303	87.62
