Data from 2019-05-04_Transmission_20-17-59-839.txt Node
Date: Sat May 04 20:17:59 EDT 2019
User: dh1006
Spectrometer: USB4E01358
Autoset integration time: false
Trigger mode: 4
Integration Time (sec): 1.000000E-1
Scans to average: 10
Electric dark correction enabled: true
Nonlinearity correction enabled: false
Boxcar width: 0
Stray light correction enabled: false
XAxis mode: Wavelengths
Stop averaging: false
Number of Pixels in Spectrum: 3648
>>>>>Begin Spectral Data<<<<<
176.727	170.28
176.966	170.28
177.205	170.28
177.444	-32.31
177.683	30.33
177.922	7.01
178.161	22.56
178.4	305.19
178.638	86
178.877	-4003.85
179.116	-74.56
179.355	57.95
179.593	-12.46
179.832	-180.77
180.071	-33.55
180.309	140.4
180.548	64.3
180.786	142.72
181.025	88.75
181.263	68.56
181.502	35.78
181.74	67.69
181.979	122.53
182.217	101.69
182.456	39.2
182.694	57.71
182.932	7.52
183.17	47.49
183.409	88.6
183.647	81.94
183.885	53.25
184.123	78.03
184.361	75.03
184.6	101.86
184.838	36.16
185.076	80.62
185.314	108.35
185.552	19.81
185.79	104.69
186.028	68.54
186.266	64.09
186.503	57.92
186.741	44.47
186.979	62.65
187.217	91.05
187.455	51.83
187.693	53.15
187.93	52.4
188.168	44.41
188.406	54.68
188.643	54.68
188.881	103.18
189.119	61.54
189.356	46.93
189.594	81.79
189.831	118.28
190.069	105.48
190.306	57.43
190.543	57.5
190.781	48.36
191.018	72.45
191.256	67.72
191.493	70.15
191.73	56.78
191.967	54.2
192.205	85.7
192.442	120.98
192.679	82.88
192.916	53.69
193.153	87.68
193.39	109.03
193.628	62.95
193.865	39.22
194.102	86.14
194.339	76.97
194.576	8.74
194.813	83.07
195.049	70.74
195.286	70.56
195.523	53.74
195.76	97.94
195.997	52.11
196.234	77.34
196.47	44.54
196.707	75.1
196.944	57.63
197.18	83.89
197.417	85.91
197.654	51.31
197.89	50.46
198.127	42.77
198.363	40.62
198.6	80.24
198.836	59.79
199.073	70.73
199.309	53.22
199.546	22.39
199.782	90.86
200.018	112.75
200.255	63.63
200.491	102.49
200.727	44.03
200.963	50.47
201.199	103.45
201.436	125.81
201.672	51.18
201.908	47.42
202.144	39.22
202.38	23.66
202.616	69.42
202.852	45.97
203.088	65.02
203.324	80.85
203.56	58.76
203.796	46.87
204.032	85.44
204.268	98.81
204.503	71.86
204.739	77.47
204.975	46.67
205.211	44.72
205.446	41.75
205.682	87.07
205.918	94.71
206.153	64.55
206.389	50.02
206.625	93.6
206.86	48.54
207.096	47.81
207.331	47.56
207.567	72.51
207.802	62.92
208.037	44.54
208.273	50.84
208.508	113.66
208.744	74.47
208.979	64.21
209.214	110.67
209.449	123.91
209.685	65.19
209.92	63.74
210.155	48.25
210.39	61.97
210.625	51.47
210.86	100.37
211.095	70.56
211.33	73.06
211.565	72.69
211.8	71.79
212.035	14.05
212.27	89.04
212.505	35.69
212.74	88.54
212.975	37.43
213.21	65.11
213.444	90.71
213.679	51.98
213.914	83.08
214.149	82.87
214.383	71.91
214.618	45.45
214.853	70.65
215.087	72.55
215.322	56.25
215.556	29.83
215.791	66.29
216.025	60.77
216.26	61.06
216.494	82.65
216.729	81.3
216.963	48.45
217.197	79.74
217.432	9.54
217.666	76.58
217.9	30.87
218.135	29.52
218.369	24.53
218.603	33.19
218.837	40.52
219.071	49.7
219.306	79.37
219.54	57.48
219.774	55.73
220.008	92.05
220.242	76.46
220.476	34.16
220.71	34.11
220.944	115.16
221.178	59.58
221.411	43.59
221.645	70.71
221.879	80.15
222.113	61.56
222.347	50.52
222.58	57.39
222.814	23.79
223.048	42.58
223.281	61.95
223.515	50.41
223.749	59.52
223.982	83.13
224.216	58.68
224.449	50.02
224.683	64.56
224.916	86.95
225.15	47.91
225.383	144.99
225.617	89.5
225.85	65.57
226.083	73.85
226.317	45.21
226.55	86.26
226.783	120.96
227.016	82.59
227.25	56.34
227.483	31.22
227.716	72.87
227.949	36.22
228.182	99.3
228.415	50.97
228.648	47.09
228.881	94.19
229.114	68.66
229.347	77.3
229.58	57.12
229.813	33.87
230.046	52.17
230.279	42.48
230.512	63.61
230.745	33.45
230.977	51.25
231.21	38.57
231.443	54.74
231.675	78.67
231.908	59.05
232.141	63.58
232.373	74.34
232.606	58.75
232.839	79.3
233.071	68.91
233.304	52.39
233.536	65.52
233.769	-5.46
234.001	72.38
234.233	97.8
234.466	82.44
234.698	41.25
234.93	82.07
235.163	91.29
235.395	59.21
235.627	59.01
235.86	76.81
236.092	98.19
236.324	82.2
236.556	15.89
236.788	89.58
237.02	31.92
237.252	83.52
237.484	68.39
237.716	64.56
237.948	48.1
238.18	35.18
238.412	18.63
238.644	31.96
238.876	69.73
239.108	56.99
239.34	87.8
239.571	87.81
239.803	73.15
240.035	61.61
240.267	28.3
240.498	104.74
240.73	57.38
240.962	83.08
241.193	61.33
241.425	43.58
241.656	61.56
241.888	73.02
242.119	103.32
242.351	65.07
242.582	71.04
242.814	35.6
243.045	53.72
243.277	35.94
243.508	51.56
243.739	56.99
243.971	66.61
244.202	61.05
244.433	75.08
244.664	82.2
244.896	43.88
245.127	54.22
245.358	56.77
245.589	48.87
245.82	11.74
246.051	75.09
246.282	46.57
246.513	80.43
246.744	53
246.975	92.61
247.206	76.49
247.437	106.49
247.668	51.53
247.899	53.51
248.129	85.13
248.36	67.86
248.591	73.97
248.822	27.8
249.052	71.45
249.283	88.92
249.514	59.62
249.744	54.47
249.975	53.78
250.206	31.39
250.436	68.36
250.667	62.63
250.897	32
251.128	57.67
251.358	32.26
251.589	43.23
251.819	70.26
252.049	94.66
252.28	92.24
252.51	53.81
252.74	56.46
252.971	42.69
253.201	37.77
253.431	88.37
253.661	42.43
253.891	65.82
254.121	65.73
254.352	87.9
254.582	66.69
254.812	72.72
255.042	73.83
255.272	45.31
255.502	63.96
255.732	41.46
255.962	54.07
256.192	80.24
256.421	61.12
256.651	64.71
256.881	41.36
257.111	37
257.341	28.78
257.57	87.45
257.8	68.55
258.03	97.72
258.259	64.21
258.489	64.59
258.719	36.47
258.948	31.3
259.178	56.47
259.407	43.29
259.637	74.11
259.866	81.81
260.096	33.79
260.325	84.84
260.555	61.09
260.784	79.37
261.013	32.64
261.243	34.56
261.472	80.32
261.701	33.15
261.931	66.83
262.16	50.67
262.389	124.51
262.618	48.93
262.847	73.38
263.076	14.31
263.305	67.18
263.535	54.61
263.764	66.81
263.993	85.76
264.222	97.08
264.451	48.11
264.679	46.49
264.908	87.16
265.137	76.43
265.366	112.91
265.595	106.78
265.824	47.67
266.053	42.63
266.281	28.92
266.51	27.35
266.739	74.22
266.967	50.82
267.196	67.73
267.425	38.43
267.653	31.61
267.882	39.04
268.11	81.19
268.339	49.45
268.567	68.06
268.796	74.91
269.024	43.55
269.253	44.11
269.481	70.97
269.709	50.54
269.938	12.69
270.166	39.26
270.394	44.14
270.623	92.96
270.851	62.03
271.079	67.48
271.307	58.76
271.535	60.6
271.764	61.58
271.992	44.27
272.22	44.55
272.448	105.71
272.676	74.03
272.904	41.89
273.132	69.1
273.36	40.06
273.588	66.59
273.816	68.22
274.043	45.29
274.271	66.44
274.499	115.71
274.727	66.9
274.955	48.97
275.182	53.86
275.41	71.49
275.638	50.28
275.866	39.2
276.093	56
276.321	76.15
276.548	44.29
276.776	66.87
277.003	50.02
277.231	44.93
277.458	58.72
277.686	77.6
277.913	64.64
278.141	90.81
278.368	75.56
278.595	55.04
278.823	33.86
279.05	68.73
279.277	53.06
279.505	65.99
279.732	13.22
279.959	51.85
280.186	50.15
280.413	61.27
280.641	36.94
280.868	64.13
281.095	49.44
281.322	36.7
281.549	44.2
281.776	79.52
282.003	76.96
282.23	10.14
282.457	41.03
282.683	27.49
282.91	67.25
283.137	68.61
283.364	50.89
283.591	100.92
283.818	49.38
284.044	56.36
284.271	57.03
284.498	77.3
284.724	52.52
284.951	56.09
285.178	49.8
285.404	39.23
285.631	59.31
285.857	73.94
286.084	68.37
286.31	41.29
286.537	30.16
286.763	58.16
286.99	83.35
287.216	103.97
287.442	62.46
287.669	30.7
287.895	76.19
288.121	68.16
288.347	37.93
288.574	67.17
288.8	29.1
289.026	32.82
289.252	37.78
289.478	47.23
289.704	48.09
289.931	93.28
290.157	68.77
290.383	73.71
290.609	91.77
290.835	42.74
291.06	42.14
291.286	64.52
291.512	62.76
291.738	44.61
291.964	66.77
292.19	50.48
292.416	64.81
292.641	44.73
292.867	35.68
293.093	46.28
293.319	63.8
293.544	34.68
293.77	54.34
293.995	57.39
294.221	21.92
294.447	39.97
294.672	57.21
294.898	65.13
295.123	39.55
295.349	63.86
295.574	40.13
295.799	65.38
296.025	53.35
296.25	51.18
296.476	39.53
296.701	86.71
296.926	37.38
297.151	44.3
297.377	38.54
297.602	54.43
297.827	47.23
298.052	60.11
298.277	69.3
298.502	55.11
298.727	55.46
298.953	47.44
299.178	81.86
299.403	50.15
299.628	74.63
299.852	63.18
300.077	55.23
300.302	74
300.527	31.47
300.752	58.83
300.977	58.87
301.202	72
301.426	48.02
301.651	42.62
301.876	75.99
302.101	72.05
302.325	53.09
302.55	65.64
302.775	44.82
302.999	55.98
303.224	53.41
303.448	59.96
303.673	63.37
303.897	89.76
304.122	41.91
304.346	71.85
304.571	61.84
304.795	60.3
305.019	72.18
305.244	52.33
305.468	46.61
305.692	65.55
305.917	69.02
306.141	73.05
306.365	34.28
306.589	57.13
306.813	49.53
307.038	59.57
307.262	18.86
307.486	53.4
307.71	66.2
307.934	61.6
308.158	47.31
308.382	48.02
308.606	109.04
308.83	73.72
309.054	52.05
309.278	60.3
309.502	33
309.725	69.1
309.949	62.98
310.173	36.5
310.397	73.84
310.62	71.64
310.844	27.47
311.068	21.19
311.292	51.71
311.515	70.3
311.739	56.04
311.962	66.39
312.186	50.89
312.41	72.29
312.633	72.3
312.857	79.47
313.08	52.78
313.303	44.87
313.527	74.5
313.75	69.92
313.974	86.94
314.197	66.76
314.42	63.63
314.644	64.86
314.867	69.33
315.09	37.05
315.313	118.61
315.536	85.64
315.76	43.67
315.983	54.58
316.206	19.04
316.429	60.17
316.652	15.36
316.875	55.02
317.098	74.54
317.321	66.61
317.544	57.48
317.767	58.76
317.99	56.27
318.213	56.31
318.436	62.99
318.658	63.65
318.881	53.08
319.104	44.66
319.327	63.02
319.55	86.19
319.772	24.88
319.995	50.5
320.218	61.37
320.44	43.51
320.663	46.94
320.885	49.77
321.108	28.15
321.331	54.73
321.553	73.25
321.776	45.96
321.998	79.94
322.22	72.86
322.443	81.81
322.665	52.55
322.888	62.78
323.11	46.23
323.332	66.52
323.555	40.76
323.777	66.87
323.999	46.7
324.221	62.55
324.443	48.95
324.666	85.83
324.888	46.07
325.11	49.89
325.332	42.72
325.554	27.38
325.776	60.37
325.998	34.12
326.22	72.49
326.442	59.73
326.664	71.3
326.886	103.23
327.108	69.87
327.33	77.02
327.551	72.28
327.773	67.96
327.995	58.98
328.217	89.9
328.439	85.21
328.66	71.21
328.882	67.18
329.104	69.23
329.325	65.09
329.547	61.02
329.769	80.5
329.99	82.69
330.212	55.03
330.433	52.35
330.655	42.53
330.876	41.41
331.098	55.01
331.319	62.83
331.54	60.28
331.762	79.59
331.983	44.6
332.204	88.17
332.426	72.62
332.647	60.27
332.868	42.6
333.089	63.15
333.311	64.82
333.532	56.87
333.753	93.55
333.974	56.49
334.195	75.2
334.416	36.87
334.637	71.66
334.858	31.44
335.079	48.69
335.3	66.09
335.521	42.23
335.742	54.41
335.963	56.76
336.184	28.98
336.405	53.29
336.626	46.54
336.846	51.49
337.067	45.82
337.288	38.1
337.509	61.84
337.729	66.33
337.95	18.4
338.171	76.65
338.391	24.08
338.612	58.5
338.833	48.86
339.053	65.84
339.274	54.04
339.494	64.44
339.715	85.48
339.935	92.39
340.156	59.46
340.376	57.08
340.596	70.98
340.817	50.2
341.037	63.93
341.257	76.72
341.478	74.36
341.698	64.77
341.918	51.39
342.138	55.52
342.359	74.59
342.579	38.92
342.799	43.46
343.019	59.45
343.239	65.09
343.459	30.53
343.679	43.7
343.899	59.32
344.119	47.26
344.339	76.19
344.559	66.28
344.779	61.96
344.999	61.28
345.219	64.86
345.439	76.86
345.658	66.3
345.878	59.93
346.098	49.6
346.318	38.94
346.537	43.31
346.757	49.73
346.977	63.76
347.196	48.1
347.416	49.74
347.636	41.17
347.855	57.6
348.075	53.66
348.294	54.85
348.514	66.32
348.733	78.12
348.953	58.29
349.172	48.62
349.392	76.79
349.611	72.93
349.83	64.09
350.05	33.14
350.269	77.95
350.488	74.96
350.707	62.94
350.927	69.71
351.146	80.68
351.365	36.16
351.584	63.65
351.803	75.46
352.023	61.96
352.242	26.53
352.461	96.79
352.68	60.69
352.899	53.52
353.118	79.89
353.337	62.67
353.556	49.57
353.775	103.48
353.993	89
354.212	30.59
354.431	66.84
354.65	63.75
354.869	90.1
355.088	54.8
355.306	76.04
355.525	54.76
355.744	48.99
355.962	72.04
356.181	76.94
356.4	68.97
356.618	40.48
356.837	53.78
357.055	57.26
357.274	58.25
357.492	83.1
357.711	31.06
357.929	63.34
358.148	69.41
358.366	34.84
358.585	35
358.803	45.15
359.021	52.75
359.24	37.07
359.458	50.22
359.676	50.83
359.894	88.81
360.113	52.7
360.331	35.82
360.549	48.96
360.767	54.87
360.985	44.74
361.203	53.49
361.421	70.75
361.639	33.19
361.857	40.68
362.075	52.11
362.293	54.79
362.511	22.51
362.729	52.04
362.947	57.46
363.165	87.2
363.383	39.22
363.601	58.83
363.819	72.16
364.036	73.83
364.254	60.49
364.472	66.06
364.689	65.69
364.907	67.07
365.125	59.09
365.342	55.52
365.56	64.8
365.778	43.53
365.995	33.5
366.213	60.6
366.43	59.27
366.648	73.53
366.865	45.95
367.083	92.59
367.3	51.25
367.517	49.04
367.735	51.37
367.952	48.13
368.17	59.48
368.387	56.85
368.604	16.58
368.821	62.01
369.039	52.42
369.256	64.19
369.473	50.01
369.69	55.94
369.907	39.05
370.124	67.18
370.341	57.83
370.558	60.76
370.776	30.88
370.993	69.11
371.21	53.89
371.426	68.25
371.643	80.83
371.86	64.59
372.077	49.01
372.294	61.06
372.511	50.59
372.728	68.35
372.945	34.17
373.161	61.9
373.378	56.22
373.595	74.72
373.811	56.48
374.028	52.15
374.245	64.01
374.461	73.72
374.678	43.48
374.895	61.35
375.111	41.59
375.328	49.48
375.544	65.14
375.761	77.32
375.977	55.83
376.194	93.95
376.41	52.74
376.626	64.07
376.843	82.2
377.059	58.56
377.275	46.25
377.492	39.48
377.708	80.73
377.924	53.38
378.14	63.79
378.357	52.78
378.573	71.54
378.789	47.84
379.005	54.95
379.221	76.12
379.437	49.62
379.653	72.49
379.869	83.76
380.085	61.61
380.301	69.42
380.517	62.23
380.733	55.16
380.949	46.42
381.165	53.25
381.381	58.29
381.597	76.95
381.813	79.39
382.028	68.2
382.244	62.67
382.46	57.77
382.676	71.64
382.891	63.27
383.107	60.53
383.323	63.5
383.538	57.82
383.754	59.03
383.969	63.09
384.185	89.76
384.4	76.29
384.616	73.87
384.831	89.44
385.047	74.8
385.262	67.3
385.478	78.29
385.693	53.05
385.909	52.1
386.124	48.82
386.339	50.97
386.554	68.26
386.77	71.06
386.985	75.25
387.2	62.31
387.415	57
387.631	67.97
387.846	48.77
388.061	74.28
388.276	58.86
388.491	83.04
388.706	63.95
388.921	68.62
389.136	81.56
389.351	63.43
389.566	53.11
389.781	67.07
389.996	73.44
390.211	63
390.426	81.8
390.641	70.57
390.855	69.96
391.07	68.74
391.285	72.65
391.5	75.6
391.714	81.2
391.929	71.01
392.144	74.24
392.358	83.81
392.573	84.71
392.788	91
393.002	82.25
393.217	66.09
393.431	75.82
393.646	69.79
393.86	83.44
394.075	66.53
394.289	76.55
394.504	79.18
394.718	84.69
394.933	80.7
395.147	78.28
395.361	74.69
395.576	78.21
395.79	93.5
396.004	74.33
396.218	80.3
396.432	80.74
396.647	81.34
396.861	72.48
397.075	88.54
397.289	71.98
397.503	88.85
397.717	80.3
397.931	83.57
398.145	80.83
398.359	87.32
398.573	82.45
398.787	81.96
399.001	85.1
399.215	86.96
399.429	85.5
399.643	86.25
399.857	91.37
400.07	85.92
400.284	88.53
400.498	91.51
400.712	92.66
400.925	91.78
401.139	89.9
401.353	86.27
401.566	91.11
401.78	89.69
401.994	89.11
402.207	91.43
402.421	91.36
402.634	92.63
402.848	93.35
403.061	91.06
403.275	90.47
403.488	95.87
403.702	91.53
403.915	91.46
404.128	96.88
404.342	98.24
404.555	94.45
404.768	99.71
404.982	94.81
405.195	87.52
405.408	96.89
405.621	95.7
405.835	92.75
406.048	95.88
406.261	90.99
406.474	92.69
406.687	92.01
406.9	92.17
407.113	95.56
407.326	92.87
407.539	93.83
407.752	91.32
407.965	91.37
408.178	93.79
408.391	95.07
408.604	96.72
408.817	97.83
409.029	97.65
409.242	95.6
409.455	90.15
409.668	97.96
409.881	95.52
410.093	92.31
410.306	92.7
410.519	94.19
410.731	95.44
410.944	90.15
411.157	91.55
411.369	91.96
411.582	90.23
411.794	90.87
412.007	91.3
412.219	88.87
412.432	90.67
412.644	90.29
412.857	89.49
413.069	89.91
413.281	89.79
413.494	91.92
413.706	90.11
413.918	86.33
414.131	87.28
414.343	85.08
414.555	85.9
414.767	85.9
414.979	85.97
415.192	84.74
415.404	83.78
415.616	83.75
415.828	83.7
416.04	80.51
416.252	82.79
416.464	80.8
416.676	80.6
416.888	79.94
417.1	77.67
417.312	79.84
417.524	77.44
417.736	78.31
417.948	76.66
418.159	75.34
418.371	72.98
418.583	74.39
418.795	71.89
419.007	73.5
419.218	70.09
419.43	69.68
419.642	71.8
419.853	68.16
420.065	67.65
420.276	68.59
420.488	65.71
420.7	65.92
420.911	64.7
421.123	63.44
421.334	63.93
421.546	60.18
421.757	60.3
421.969	59.24
422.18	58.89
422.391	58.47
422.603	58.75
422.814	55.65
423.025	55.83
423.237	55.56
423.448	53.05
423.659	54.96
423.87	53.81
424.082	52.38
424.293	53.37
424.504	51.1
424.715	49.14
424.926	49.69
425.137	50.66
425.348	48.05
425.559	47.08
425.77	46.64
425.981	46
426.192	46.16
426.403	43.94
426.614	42.33
426.825	44.55
427.036	43.67
427.247	41.36
427.458	40.87
427.668	41.52
427.879	40.75
428.09	41.01
428.301	37.95
428.511	39.02
428.722	38.06
428.933	37.57
429.143	37.81
429.354	36.08
429.565	35.04
429.775	34.64
429.986	35.56
430.196	33.73
430.407	33.66
430.617	34.42
430.828	33.7
431.038	32.31
431.249	32.22
431.459	32.12
431.669	32.03
431.88	31.03
432.09	30.75
432.3	31.42
432.511	29.66
432.721	28.87
432.931	28.85
433.141	28.77
433.351	28.05
433.562	28.46
433.772	28
433.982	26.5
434.192	26.64
434.402	26.51
434.612	26.59
434.822	25.45
435.032	25.71
435.242	26.14
435.452	24.68
435.662	24.16
435.872	24.26
436.082	25.16
436.292	24.37
436.502	23.64
436.711	22.62
436.921	22.91
437.131	22.11
437.341	23.28
437.551	22.37
437.76	23.06
437.97	20.03
438.18	22.31
438.389	21.66
438.599	21.4
438.808	21.51
439.018	21.99
439.228	19.76
439.437	19.85
439.647	19.72
439.856	20.83
440.066	19.09
440.275	20.11
440.484	19.46
440.694	19.47
440.903	18.99
441.113	18.75
441.322	18.12
441.531	19.42
441.741	19.51
441.95	17.04
442.159	17.76
442.368	18.15
442.577	17.95
442.787	18.75
442.996	17.66
443.205	18.58
443.414	17.6
443.623	16.66
443.832	18.15
444.041	16.89
444.25	16.54
444.459	16.62
444.668	16.91
444.877	16.82
445.086	16.25
445.295	16.97
445.504	15.93
445.713	16.99
445.922	16.67
446.13	16.35
446.339	17.36
446.548	15.52
446.757	15.21
446.965	15.56
447.174	16.9
447.383	14.78
447.591	14.86
447.8	13.9
448.009	15.05
448.217	17.37
448.426	15.62
448.634	14.1
448.843	13.56
449.051	15.42
449.26	15.1
449.468	13.69
449.677	13.97
449.885	13.74
450.093	12.97
450.302	14.91
450.51	14.03
450.719	14.34
450.927	14.78
451.135	13.97
451.343	13.96
451.552	14.43
451.76	13.97
451.968	14.77
452.176	12.44
452.384	12.75
452.592	14.58
452.8	14.03
453.009	12.58
453.217	12.97
453.425	13.65
453.633	13.83
453.841	13.04
454.049	12.98
454.257	13.28
454.464	13.38
454.672	13.09
454.88	13.71
455.088	12.33
455.296	12.99
455.504	12.81
455.711	12.61
455.919	12.11
456.127	14.29
456.335	12.46
456.542	10.81
456.75	12.93
456.958	12.18
457.165	11.93
457.373	13.26
457.581	12.12
457.788	13.26
457.996	13.26
458.203	12.96
458.411	11
458.618	13.86
458.826	11.81
459.033	11.98
459.24	12.29
459.448	12.29
459.655	12.81
459.863	13.53
460.07	12.82
460.277	13.64
460.484	13.32
460.692	11.29
460.899	11.27
461.106	11.79
461.313	10.92
461.52	12.56
461.728	11.58
461.935	12.38
462.142	12.89
462.349	11.5
462.556	12.5
462.763	12.66
462.97	12.47
463.177	12.3
463.384	12.47
463.591	11.59
463.798	12.28
464.005	12.17
464.212	10.62
464.418	12.41
464.625	11.49
464.832	12.04
465.039	12.33
465.246	12.59
465.452	12.47
465.659	11.51
465.866	12.51
466.072	12.74
466.279	11.24
466.486	11.97
466.692	11.66
466.899	11.73
467.105	11.61
467.312	11.66
467.519	13.68
467.725	12.22
467.931	12.07
468.138	11.79
468.344	11.67
468.551	12.56
468.757	11.37
468.964	11.38
469.17	12.45
469.376	11.53
469.583	11.83
469.789	11.76
469.995	12.83
470.201	11.45
470.408	11.11
470.614	11.06
470.82	11.92
471.026	11.58
471.232	12.14
471.438	12.76
471.644	11.44
471.85	12.58
472.056	13
472.262	12.62
472.468	11.75
472.674	11.9
472.88	12.6
473.086	12.93
473.292	11.96
473.498	12.45
473.704	12.95
473.91	12.24
474.116	11.71
474.321	13.12
474.527	11.73
474.733	12.65
474.939	12.34
475.144	12.87
475.35	12.6
475.556	12.64
475.761	12.19
475.967	12.59
476.173	12.51
476.378	12.79
476.584	12.71
476.789	12.64
476.995	13.07
477.2	12.09
477.406	13.35
477.611	12.88
477.817	13.23
478.022	13.84
478.227	13.1
478.433	13.41
478.638	13.15
478.843	13.32
479.049	13.02
479.254	13.59
479.459	13.46
479.664	13.35
479.87	13.51
480.075	13.19
480.28	13.34
480.485	14.41
480.69	13.1
480.895	13.81
481.1	14.08
481.306	13.72
481.511	13.66
481.716	14.43
481.921	13.88
482.126	14.15
482.33	14.03
482.535	13.79
482.74	14.46
482.945	14.59
483.15	14.02
483.355	14.65
483.56	14.49
483.765	14.44
483.969	14.77
484.174	15.17
484.379	14.96
484.583	15.07
484.788	14.71
484.993	15.45
485.197	15.88
485.402	16.23
485.607	16.01
485.811	16.03
486.016	16.09
486.22	16.25
486.425	16.35
486.629	15.93
486.834	16.72
487.038	16.99
487.243	16.68
487.447	17.44
487.652	17.39
487.856	16.79
488.06	17.9
488.265	16.92
488.469	17.6
488.673	17.91
488.877	17.47
489.082	18.39
489.286	18.24
489.49	18.01
489.694	18.57
489.898	18.95
490.102	19.38
490.307	19.53
490.511	19.55
490.715	19.69
490.919	19.94
491.123	19.82
491.327	20.24
491.531	20.96
491.735	20.31
491.939	20.99
492.143	21.47
492.346	21.13
492.55	21.7
492.754	21.54
492.958	22.39
493.162	22.12
493.366	22.1
493.569	22.88
493.773	23
493.977	23.55
494.18	23.78
494.384	23.93
494.588	24.21
494.791	24.35
494.995	24.91
495.199	25
495.402	25.16
495.606	25.8
495.809	26.42
496.013	26.55
496.216	26.64
496.42	27.31
496.623	27.86
496.827	27.74
497.03	28.17
497.233	28.4
497.437	28.82
497.64	29.45
497.843	30.57
498.047	30.38
498.25	31.07
498.453	31.37
498.656	31.64
498.86	32.13
499.063	32.1
499.266	33.03
499.469	34.1
499.672	34.61
499.875	34.79
500.078	35.38
500.281	35.6
500.484	36.33
500.687	37.47
500.89	37.48
501.093	38.6
501.296	38.74
501.499	39.13
501.702	40.21
501.905	40.27
502.108	40.68
502.311	41.97
502.514	42.56
502.716	43.64
502.919	44.17
503.122	44.5
503.325	45.51
503.527	46.53
503.73	46.88
503.933	47.71
504.135	48.82
504.338	50.14
504.541	50.2
504.743	51.18
504.946	52.04
505.148	53.19
505.351	53.97
505.553	54.92
505.756	56.26
505.958	56.87
506.161	57.88
506.363	59.68
506.565	59.68
506.768	61.03
506.97	62.46
507.172	62.49
507.375	64.07
507.577	65.71
507.779	66.78
507.982	67.84
508.184	68.5
508.386	69.17
508.588	71.41
508.79	72.34
508.993	72.71
509.195	73.28
509.397	74.99
509.599	76.54
509.801	77.5
510.003	79.06
510.205	79.8
510.407	80.23
510.609	81.86
510.811	83.86
511.013	83.66
511.215	84.56
511.417	85.97
511.618	87.54
511.82	89.19
512.022	88.93
512.224	89.89
512.426	90.33
512.627	92.12
512.829	92.14
513.031	92.95
513.233	93.55
513.434	95.17
513.636	95.43
513.838	94.97
514.039	96.18
514.241	96.73
514.442	96.88
514.644	97.42
514.845	97.16
515.047	97.91
515.248	97.78
515.45	97.56
515.651	98.4
515.853	98.84
516.054	97.51
516.256	97.48
516.457	98
516.658	97.27
516.86	96.88
517.061	95.8
517.262	95.92
517.463	96.23
517.665	96.16
517.866	94.99
518.067	93.95
518.268	93.4
518.469	92.56
518.67	91.36
518.872	90.36
519.073	90.06
519.274	88.86
519.475	87.92
519.676	87.38
519.877	86.39
520.078	85.23
520.279	84.98
520.48	83.24
520.681	82.66
520.881	81.47
521.082	80.37
521.283	79.72
521.484	78.44
521.685	77.37
521.886	75.68
522.086	75.18
522.287	74.28
522.488	72.77
522.689	72.09
522.889	70.79
523.09	69.45
523.291	68.06
523.491	67.83
523.692	66.67
523.892	66.16
524.093	64.27
524.294	63.13
524.494	62.7
524.695	61.93
524.895	60.12
525.096	59.36
525.296	58.81
525.496	57.52
525.697	56.42
525.897	55.69
526.098	54.76
526.298	53.97
526.498	53.36
526.699	52.37
526.899	51.28
527.099	50.59
527.299	49.81
527.499	48.86
527.7	48.49
527.9	47.18
528.1	47.25
528.3	45.52
528.5	45.32
528.7	44.27
528.9	43.77
529.1	42.94
529.3	42.26
529.5	42.05
529.7	41.26
529.9	40.47
530.1	40.25
530.3	39.22
530.5	38.81
530.7	37.99
530.9	37.51
531.1	36.88
531.3	36.71
531.499	35.91
531.699	35.39
531.899	34.56
532.099	34.81
532.298	33.88
532.498	33.48
532.698	32.93
532.897	32.59
533.097	31.79
533.297	31.62
533.496	31.43
533.696	30.94
533.895	30.35
534.095	29.94
534.294	29.55
534.494	29.04
534.693	28.5
534.893	28.37
535.092	27.9
535.292	27.81
535.491	27.34
535.69	26.83
535.89	26.62
536.089	26.08
536.288	26.08
536.488	25.65
536.687	25.52
536.886	25.14
537.085	24.41
537.285	24.5
537.484	24.09
537.683	23.94
537.882	23.46
538.081	23.27
538.28	23.04
538.479	22.76
538.678	22.73
538.877	22.32
539.076	21.83
539.275	22.01
539.474	21.5
539.673	21.34
539.872	21.03
540.071	20.92
540.27	20.83
540.469	20.36
540.668	20.23
540.867	20.04
541.065	19.92
541.264	19.64
541.463	19.46
541.662	19.3
541.861	19.17
542.059	18.75
542.258	18.68
542.457	18.6
542.655	18.32
542.854	18.29
543.052	17.86
543.251	18.01
543.45	17.82
543.648	17.64
543.847	17.3
544.045	17.24
544.244	17.19
544.442	17.09
544.641	16.96
544.839	16.57
545.037	16.41
545.236	16.35
545.434	16.15
545.632	16.08
545.831	15.91
546.029	15.8
546.227	15.79
546.426	15.6
546.624	15.47
546.822	15.38
547.02	15.04
547.218	15.19
547.417	14.89
547.615	14.91
547.813	14.8
548.011	14.61
548.209	14.57
548.407	14.51
548.605	14.41
548.803	14.23
549.001	14.17
549.199	13.85
549.397	13.7
549.595	13.93
549.793	13.61
549.991	13.78
550.189	13.63
550.387	13.42
550.584	13.59
550.782	13.15
550.98	13.11
551.178	13.07
551.376	13.09
551.573	13.02
551.771	12.88
551.969	12.88
552.166	12.68
552.364	12.61
552.562	12.59
552.759	12.46
552.957	12.41
553.154	12.18
553.352	12.3
553.55	12.21
553.747	12.2
553.945	11.94
554.142	11.91
554.339	12.03
554.537	11.78
554.734	11.81
554.932	11.92
555.129	11.58
555.326	11.74
555.524	11.63
555.721	11.45
555.918	11.51
556.116	11.53
556.313	11.26
556.51	11.2
556.707	11.24
556.904	11.11
557.102	11.19
557.299	11.11
557.496	10.97
557.693	11.03
557.89	10.86
558.087	10.85
558.284	10.63
558.481	10.85
558.678	10.79
558.875	10.69
559.072	10.76
559.269	10.59
559.466	10.53
559.663	10.38
559.86	10.47
560.057	10.44
560.254	10.42
560.45	10.25
560.647	10.42
560.844	10.38
561.041	10.38
561.237	10.26
561.434	10.18
561.631	10.09
561.828	9.93
562.024	10.08
562.221	9.93
562.418	9.91
562.614	9.94
562.811	9.87
563.007	9.84
563.204	9.81
563.4	9.68
563.597	9.83
563.793	9.68
563.99	9.72
564.186	9.58
564.383	9.56
564.579	9.52
564.775	9.47
564.972	9.65
565.168	9.58
565.365	9.49
565.561	9.49
565.757	9.46
565.953	9.48
566.15	9.42
566.346	9.32
566.542	9.34
566.738	9.35
566.934	9.28
567.131	9.28
567.327	9.24
567.523	9.4
567.719	9.18
567.915	9.21
568.111	9.16
568.307	9.19
568.503	9.11
568.699	8.97
568.895	9.1
569.091	9.06
569.287	8.92
569.483	9.02
569.679	9.09
569.875	9.06
570.07	8.82
570.266	9
570.462	8.97
570.658	8.9
570.854	9.1
571.049	9.03
571.245	8.81
571.441	8.92
571.636	8.78
571.832	8.78
572.028	8.76
572.223	8.92
572.419	8.66
572.615	8.8
572.81	8.84
573.006	8.82
573.201	8.77
573.397	8.74
573.592	8.86
573.788	8.77
573.983	8.78
574.179	8.69
574.374	8.75
574.569	8.71
574.765	8.72
574.96	8.7
575.156	8.71
575.351	8.53
575.546	8.57
575.741	8.7
575.937	8.67
576.132	8.54
576.327	8.44
576.522	8.55
576.718	8.66
576.913	8.61
577.108	8.47
577.303	8.59
577.498	8.56
577.693	8.66
577.888	8.43
578.083	8.5
578.278	8.5
578.473	8.57
578.668	8.55
578.863	8.46
579.058	8.5
579.253	8.52
579.448	8.44
579.643	8.61
579.838	8.48
580.033	8.56
580.227	8.5
580.422	8.53
580.617	8.49
580.812	8.63
581.006	8.58
581.201	8.57
581.396	8.57
581.591	8.56
581.785	8.54
581.98	8.47
582.175	8.55
582.369	8.55
582.564	8.49
582.758	8.47
582.953	8.49
583.147	8.49
583.342	8.58
583.536	8.44
583.731	8.51
583.925	8.53
584.12	8.52
584.314	8.48
584.509	8.4
584.703	8.53
584.897	8.53
585.092	8.59
585.286	8.51
585.48	8.53
585.674	8.56
585.869	8.65
586.063	8.58
586.257	8.49
586.451	8.48
586.646	8.55
586.84	8.62
587.034	8.51
587.228	8.5
587.422	8.62
587.616	8.61
587.81	8.53
588.004	8.54
588.198	8.66
588.392	8.66
588.586	8.62
588.78	8.61
588.974	8.66
589.168	8.63
589.362	8.69
589.556	8.61
589.75	8.72
589.944	8.72
590.137	8.75
590.331	8.6
590.525	8.83
590.719	8.72
590.913	8.78
591.106	8.66
591.3	8.81
591.494	8.72
591.687	8.75
591.881	8.77
592.075	8.82
592.268	8.8
592.462	8.83
592.655	8.85
592.849	8.92
593.043	8.86
593.236	8.83
593.43	8.81
593.623	8.94
593.817	8.85
594.01	8.89
594.203	8.96
594.397	8.97
594.59	8.97
594.784	9.05
594.977	9.02
595.17	9.06
595.364	9.04
595.557	9.11
595.75	9.02
595.943	8.97
596.137	9.18
596.33	9.23
596.523	9.25
596.716	9.21
596.909	9.17
597.102	9.07
597.296	9.2
597.489	9.25
597.682	9.21
597.875	9.31
598.068	9.36
598.261	9.26
598.454	9.43
598.647	9.36
598.84	9.32
599.033	9.36
599.226	9.43
599.419	9.4
599.611	9.41
599.804	9.51
599.997	9.55
600.19	9.48
600.383	9.59
600.576	9.58
600.768	9.54
600.961	9.61
601.154	9.7
601.347	9.7
601.539	9.72
601.732	9.58
601.925	9.72
602.117	9.73
602.31	9.67
602.502	9.75
602.695	9.86
602.888	9.77
603.08	9.83
603.273	9.82
603.465	9.87
603.658	10
603.85	9.97
604.043	9.97
604.235	10.12
604.427	10.1
604.62	10.06
604.812	10.11
605.004	10.01
605.197	10.14
605.389	10.2
605.581	10.28
605.774	10.27
605.966	10.26
606.158	10.21
606.35	10.38
606.543	10.34
606.735	10.42
606.927	10.52
607.119	10.38
607.311	10.45
607.503	10.39
607.695	10.58
607.887	10.62
608.079	10.58
608.271	10.61
608.463	10.75
608.655	10.66
608.847	10.69
609.039	10.79
609.231	10.75
609.423	10.9
609.615	10.96
609.807	10.87
609.999	10.87
610.191	10.88
610.382	11.04
610.574	11.11
610.766	11.04
610.958	11.06
611.15	11.12
611.341	11.09
611.533	11.37
611.725	11.23
611.916	11.19
612.108	11.29
612.3	11.42
612.491	11.46
612.683	11.52
612.874	11.48
613.066	11.56
613.257	11.62
613.449	11.59
613.64	11.71
613.832	11.7
614.023	11.74
614.215	11.93
614.406	11.93
614.598	11.93
614.789	11.92
614.98	12.04
615.172	12.03
615.363	12.08
615.554	12.08
615.746	12.19
615.937	12.22
616.128	12.28
616.319	12.31
616.511	12.29
616.702	12.36
616.893	12.47
617.084	12.43
617.275	12.5
617.466	12.6
617.658	12.6
617.849	12.74
618.04	12.71
618.231	12.72
618.422	12.87
618.613	12.81
618.804	13.01
618.995	13.06
619.186	13.12
619.377	13.12
619.568	13.15
619.758	13.23
619.949	13.28
620.14	13.31
620.331	13.61
620.522	13.45
620.713	13.55
620.903	13.57
621.094	13.72
621.285	13.84
621.476	13.72
621.666	13.87
621.857	13.88
622.048	13.89
622.238	13.93
622.429	14.04
622.62	14.09
622.81	14.18
623.001	14.2
623.191	14.34
623.382	14.42
623.572	14.4
623.763	14.44
623.953	14.64
624.144	14.69
624.334	14.66
624.525	14.82
624.715	14.8
624.905	14.94
625.096	14.9
625.286	15.09
625.477	15.11
625.667	15.26
625.857	15.22
626.047	15.44
626.238	15.39
626.428	15.32
626.618	15.68
626.808	15.47
626.999	15.78
627.189	15.72
627.379	15.9
627.569	15.95
627.759	16.04
627.949	16.11
628.139	16.24
628.329	16.28
628.519	16.27
628.709	16.47
628.899	16.49
629.089	16.7
629.279	16.5
629.469	16.71
629.659	16.95
629.849	16.89
630.039	16.94
630.229	16.99
630.419	17.11
630.609	17.15
630.798	17.42
630.988	17.5
631.178	17.52
631.368	17.53
631.557	17.67
631.747	17.73
631.937	17.94
632.127	18.02
632.316	17.96
632.506	18.16
632.696	18.16
632.885	18.32
633.075	18.41
633.264	18.56
633.454	18.67
633.643	18.88
633.833	18.8
634.022	18.85
634.212	19
634.401	19.02
634.591	19.23
634.78	19.05
634.97	19.38
635.159	19.52
635.348	19.64
635.538	19.8
635.727	19.8
635.916	19.93
636.106	20.05
636.295	20.12
636.484	20.16
636.674	20.34
636.863	20.47
637.052	20.72
637.241	20.67
637.43	20.73
637.619	20.96
637.809	21.03
637.998	21.09
638.187	21.16
638.376	21.37
638.565	21.48
638.754	21.6
638.943	21.8
639.132	21.86
639.321	22.03
639.51	22.1
639.699	22.33
639.888	22.39
640.077	22.46
640.266	22.62
640.455	22.79
640.643	22.95
640.832	23.04
641.021	23.08
641.21	23.4
641.399	23.31
641.587	23.58
641.776	23.76
641.965	23.67
642.154	23.94
642.342	23.97
642.531	24.09
642.72	24.24
642.908	24.42
643.097	24.53
643.286	24.89
643.474	25.01
643.663	25.07
643.851	25.23
644.04	25.28
644.228	25.47
644.417	25.59
644.605	25.89
644.794	25.98
644.982	25.89
645.171	26.17
645.359	26.3
645.547	26.55
645.736	26.79
645.924	26.87
646.112	27.03
646.301	27.25
646.489	27.42
646.677	27.53
646.866	27.71
647.054	27.76
647.242	28
647.43	28.12
647.618	28.27
647.807	28.6
647.995	28.58
648.183	28.83
648.371	28.89
648.559	29.13
648.747	29.31
648.935	29.6
649.123	29.76
649.311	29.79
649.499	29.98
649.687	30.36
649.875	30.32
650.063	30.66
650.251	30.8
650.439	30.97
650.627	31.25
650.815	31.48
651.003	31.64
651.191	31.77
651.378	31.95
651.566	32.23
651.754	32.27
651.942	32.63
652.13	32.77
652.317	32.79
652.505	33.19
652.693	33.27
652.88	33.5
653.068	33.65
653.256	33.8
653.443	34.15
653.631	34.2
653.819	34.33
654.006	34.73
654.194	34.76
654.381	35.28
654.569	35.4
654.756	35.62
654.944	35.75
655.131	36.14
655.319	36.38
655.506	36.46
655.693	36.81
655.881	36.87
656.068	37.29
656.256	37.41
656.443	37.81
656.63	37.87
656.818	38.11
657.005	38.09
657.192	38.54
657.379	38.72
657.567	39.19
657.754	39.14
657.941	39.36
658.128	39.76
658.315	39.98
658.502	40.17
658.69	40.56
658.877	40.54
659.064	40.94
659.251	41.28
659.438	41.51
659.625	41.81
659.812	42.11
659.999	42.26
660.186	42.45
660.373	42.75
660.56	42.73
660.747	43.12
660.934	43.34
661.121	43.76
661.308	44
661.494	44.28
661.681	44.4
661.868	44.75
662.055	45.16
662.242	45.39
662.428	45.76
662.615	45.81
662.802	46.28
662.989	46.73
663.175	46.83
663.362	47.16
663.549	47.47
663.735	47.81
663.922	48.07
664.109	48.29
664.295	48.48
664.482	48.93
664.668	49.11
664.855	49.17
665.041	49.43
665.228	50.15
665.414	50.36
665.601	50.62
665.787	50.9
665.974	51.33
666.16	51.43
666.347	51.78
666.533	52.33
666.719	52.2
666.906	52.46
667.092	52.84
667.278	53.19
667.465	53.78
667.651	54.06
667.837	54.23
668.023	54.46
668.21	54.84
668.396	55.11
668.582	55.44
668.768	55.77
668.954	56.15
669.14	56.25
669.327	56.7
669.513	56.93
669.699	57.18
669.885	57.59
670.071	57.93
670.257	58.24
670.443	58.58
670.629	58.89
670.815	59.26
671.001	59.63
671.187	59.75
671.373	59.86
671.559	60.68
671.744	60.83
671.93	61.28
672.116	61.35
672.302	61.81
672.488	62.21
672.674	62.32
672.859	62.49
673.045	63.13
673.231	63.33
673.417	63.76
673.602	63.91
673.788	64.72
673.974	64.67
674.159	65.19
674.345	65.68
674.531	65.78
674.716	65.98
674.902	66.53
675.087	66.82
675.273	67.23
675.459	67.75
675.644	67.69
675.83	68.29
676.015	68.43
676.2	68.75
676.386	68.81
676.571	69.67
676.757	69.66
676.942	69.88
677.128	70.51
677.313	71.09
677.498	71.04
677.684	71.81
677.869	71.98
678.054	72.48
678.24	72.85
678.425	72.99
678.61	73.24
678.795	73.74
678.98	74.22
679.166	74.54
679.351	74.55
679.536	74.91
679.721	75.32
679.906	75.33
680.091	75.8
680.276	75.89
680.461	76.48
680.647	76.48
680.832	77.14
681.017	77.17
681.202	77.74
681.387	77.94
681.572	78.58
681.756	78.84
681.941	79.1
682.126	79.57
682.311	79.69
682.496	80.23
682.681	80.48
682.866	80.83
683.051	80.95
683.235	81.62
683.42	81.71
683.605	81.98
683.79	82.41
683.974	82.54
684.159	82.92
684.344	83.27
684.529	83.37
684.713	83.8
684.898	84.31
685.083	84.71
685.267	85.19
685.452	85.35
685.636	85.62
685.821	85.89
686.005	86.01
686.19	86.07
686.375	86.37
686.559	86.71
686.744	87.02
686.928	87.19
687.112	87.68
687.297	88.08
687.481	88.26
687.666	88.37
687.85	88.8
688.034	88.78
688.219	89
688.403	89.28
688.587	89.61
688.772	89.76
688.956	89.93
689.14	90.48
689.324	91.07
689.509	90.62
689.693	91.46
689.877	91.87
690.061	91.79
690.245	91.97
690.43	92.2
690.614	92.62
690.798	92.52
690.982	93.19
691.166	93.52
691.35	93.56
691.534	93.43
691.718	93.7
691.902	93.99
692.086	94.27
692.27	94.62
692.454	95.15
692.638	95.46
692.822	95.42
693.006	95.73
693.19	95.97
693.373	95.82
693.557	96.2
693.741	96.78
693.925	96.64
694.109	97.26
694.293	97.1
694.476	97.16
694.66	97.77
694.844	97.83
695.027	97.97
695.211	98.25
695.395	98.28
695.578	98.45
695.762	98.57
695.946	98.62
696.129	98.79
696.313	98.9
696.497	98.97
696.68	99.4
696.864	99.55
697.047	99.9
697.231	99.75
697.414	99.93
697.598	99.76
697.781	100.41
697.965	100.87
698.148	101.14
698.331	101.45
698.515	101.82
698.698	101.91
698.881	101.87
699.065	101.7
699.248	101.93
699.431	102.02
699.615	102.13
699.798	102.02
699.981	102.35
700.165	102.1
700.348	102.59
700.531	102.46
700.714	102.71
700.897	102.71
701.08	102.67
701.264	102.99
701.447	102.93
701.63	103.17
701.813	103.37
701.996	103.42
702.179	104.09
702.362	103.88
702.545	104.18
702.728	103.99
702.911	104.19
703.094	104.55
703.277	104.59
703.46	104.79
703.643	104.58
703.826	105.02
704.009	105.01
704.191	105.05
704.374	105.14
704.557	105.24
704.74	105.22
704.923	105.17
705.106	105.17
705.288	105.49
705.471	105.12
705.654	105.54
705.837	105.3
706.019	105.79
706.202	105.96
706.385	106.06
706.567	105.71
706.75	105.58
706.932	105.84
707.115	106.22
707.298	105.69
707.48	106.4
707.663	106.14
707.845	106.25
708.028	106.24
708.21	106.48
708.393	106.31
708.575	105.87
708.758	105.92
708.94	106.19
709.123	105.96
709.305	105.82
709.487	106.45
709.67	106.36
709.852	106.35
710.034	106.29
710.217	106.31
710.399	106.49
710.581	106.52
710.764	106.45
710.946	106.42
711.128	106.4
711.31	106.97
711.492	106.69
711.675	106.91
711.857	106.78
712.039	106.4
712.221	106.75
712.403	106.74
712.585	106.95
712.767	107.03
712.949	106.56
713.131	106.68
713.314	106.75
713.496	106.41
713.678	106.38
713.86	106.74
714.041	106.86
714.223	106.8
714.405	106.5
714.587	106.41
714.769	106.46
714.951	106.6
715.133	106.76
715.315	106.71
715.497	107.02
715.678	106.78
715.86	106.7
716.042	106.76
716.224	106.68
716.406	106.39
716.587	106.67
716.769	106.44
716.951	106.61
717.132	106.73
717.314	106.96
717.496	106.65
717.677	106.76
717.859	106.46
718.041	106.88
718.222	106.76
718.404	106.63
718.585	106.26
718.767	106.23
718.948	106.99
719.13	106.54
719.311	106.12
719.493	106.76
719.674	106.73
719.856	106.94
720.037	107.03
720.219	106.77
720.4	106.77
720.581	106.9
720.763	106.36
720.944	106.77
721.125	106.31
721.307	106.36
721.488	106.74
721.669	106.7
721.85	106.24
722.032	106.26
722.213	106.26
722.394	105.85
722.575	105.86
722.756	106.04
722.938	106.02
723.119	106.19
723.3	105.8
723.481	106.54
723.662	105.87
723.843	105.6
724.024	106.21
724.205	105.75
724.386	105.85
724.567	105.28
724.748	105.47
724.929	105.28
725.11	105.51
725.291	105.54
725.472	105.69
725.653	105.64
725.834	105.25
726.015	105.86
726.196	105.3
726.377	105.03
726.557	104.91
726.738	104.84
726.919	105.25
727.1	104.79
727.281	105.56
727.461	105.04
727.642	105.57
727.823	104.77
728.004	104.6
728.184	105.37
728.365	104.47
728.546	104.76
728.726	105.14
728.907	104.66
729.087	104.73
729.268	104.83
729.449	104.55
729.629	104.48
729.81	104.26
729.99	104.5
730.171	104.36
730.351	104.27
730.532	104.35
730.712	104.31
730.893	104.25
731.073	104.43
731.253	104.52
731.434	104.21
731.614	103.92
731.795	103.83
731.975	103.97
732.155	104.06
732.336	103.85
732.516	104.37
732.696	104.22
732.876	103.8
733.057	104.25
733.237	103.53
733.417	104.07
733.597	104.23
733.778	104.03
733.958	103.99
734.138	103.77
734.318	103.46
734.498	104.18
734.678	104.13
734.858	103.83
735.038	103.63
735.218	103.96
735.398	103.7
735.579	103.74
735.759	103.84
735.939	103.83
736.119	103.46
736.298	103.74
736.478	104
736.658	103.3
736.838	103.31
737.018	103.45
737.198	103.22
737.378	103.54
737.558	103.29
737.738	103.49
737.917	103.28
738.097	102.9
738.277	103.17
738.457	103.26
738.637	102.92
738.816	103.22
738.996	103.31
739.176	103.26
739.355	103.33
739.535	102.59
739.715	103.35
739.894	103.22
740.074	102.73
740.254	102.81
740.433	103.58
740.613	102.81
740.792	103.38
740.972	102.86
741.151	102.38
741.331	102.76
741.51	102.41
741.69	102.73
741.869	102.73
742.049	102.58
742.228	102.51
742.408	102.6
742.587	101.84
742.766	102.07
742.946	102.83
743.125	101.82
743.305	102.31
743.484	102.45
743.663	102.53
743.842	102
744.022	102.07
744.201	101.34
744.38	102.1
744.56	101.94
744.739	101.95
744.918	102.22
745.097	102.09
745.276	101.64
745.455	101.99
745.635	101.74
745.814	102.2
745.993	102.02
746.172	102
746.351	101.81
746.53	102.23
746.709	101.98
746.888	102.24
747.067	102.48
747.246	102.26
747.425	102.63
747.604	102.33
747.783	102.45
747.962	102.18
748.141	101.85
748.32	101.93
748.499	101.52
748.677	102
748.856	101.18
749.035	101.97
749.214	101.86
749.393	101.91
749.572	101.96
749.75	102.3
749.929	101.6
750.108	101.81
750.287	101.98
750.465	102.02
750.644	101.81
750.823	102.05
751.001	102.36
751.18	102.21
751.359	101.95
751.537	102.5
751.716	102.22
751.894	101.82
752.073	101.89
752.251	102.02
752.43	102.43
752.609	102.32
752.787	101.9
752.966	101.71
753.144	101.96
753.322	102.18
753.501	102.18
753.679	102.35
753.858	102.07
754.036	101.98
754.215	101.98
754.393	102.24
754.571	102.6
754.75	101.55
754.928	101.83
755.106	101.71
755.284	102
755.463	102.05
755.641	101.67
755.819	101.9
755.997	102.02
756.176	101.68
756.354	102.08
756.532	101.96
756.71	101.84
756.888	102.01
757.066	101.75
757.245	102.03
757.423	101.84
757.601	101.75
757.779	101.93
757.957	102.05
758.135	101.95
758.313	101.55
758.491	102.33
758.669	101.7
758.847	101.77
759.025	102.07
759.203	101.36
759.381	101.95
759.559	101.88
759.737	102.07
759.915	101.92
760.092	102.03
760.27	101.78
760.448	102.23
760.626	103.37
760.804	102.66
760.981	102.14
761.159	102.23
761.337	101.88
761.515	102.21
761.692	101.99
761.87	102.16
762.048	101.6
762.226	102.01
762.403	101.54
762.581	102.17
762.759	101.97
762.936	102.48
763.114	102.55
763.291	102.33
763.469	102.76
763.647	102.42
763.824	102.35
764.002	102.44
764.179	102.18
764.357	102.65
764.534	102.21
764.712	102.47
764.889	102.4
765.066	102.31
765.244	102.79
765.421	102.74
765.599	102.7
765.776	102.85
765.953	102.58
766.131	103.06
766.308	102.71
766.485	102.89
766.663	103.01
766.84	102.74
767.017	102.54
767.194	102.54
767.372	102.39
767.549	102.69
767.726	102.76
767.903	102.91
768.081	102.72
768.258	102.75
768.435	102.48
768.612	102.27
768.789	102.63
768.966	102.27
769.143	101.88
769.32	102.37
769.497	102.66
769.674	102.14
769.851	102.71
770.028	101.84
770.205	102.52
770.382	102.03
770.559	101.92
770.736	102.57
770.913	102.44
771.09	102
771.267	101.29
771.444	101.97
771.621	102.13
771.798	101.87
771.975	102.5
772.151	102.48
772.328	102.05
772.505	102.41
772.682	102.53
772.859	102.07
773.035	102.2
773.212	102.7
773.389	102.75
773.565	102.09
773.742	102.87
773.919	103.07
774.096	103.04
774.272	103.37
774.449	102.62
774.625	102.59
774.802	103.14
774.979	102.29
775.155	103.07
775.332	103.23
775.508	103.6
775.685	103.07
775.861	103.61
776.038	103.3
776.214	103.08
776.391	102.9
776.567	102.46
776.744	102.82
776.92	103.03
777.096	102.61
777.273	103.22
777.449	102.24
777.626	102.69
777.802	102.83
777.978	103.22
778.155	103.19
778.331	103.08
778.507	101.86
778.683	103.07
778.86	102.85
779.036	102.54
779.212	102.77
779.388	102.25
779.565	103.21
779.741	101.59
779.917	102.47
780.093	102.75
780.269	102.51
780.445	103.94
780.621	104.07
780.797	103.99
780.974	103.62
781.15	103.14
781.326	103.27
781.502	103.02
781.678	102.29
781.854	102.6
782.03	102.87
782.206	102.18
782.382	102.38
782.558	102.27
782.733	103.4
782.909	103.1
783.085	102.51
783.261	102.63
783.437	103.19
783.613	102.43
783.789	101.79
783.965	102.85
784.14	102.74
784.316	103.26
784.492	102.58
784.668	103.32
784.843	102.43
785.019	102.73
785.195	101.92
785.371	102.01
785.546	103.99
785.722	102.68
785.898	102.69
786.073	103.33
786.249	103.19
786.424	102.65
786.6	102.79
786.776	104.17
786.951	103.6
787.127	103.83
787.302	104.1
787.478	103.25
787.653	102.73
787.829	102.62
788.004	103.84
788.18	102.7
788.355	102.69
788.531	102.86
788.706	103.26
788.881	104.2
789.057	103.81
789.232	105.18
789.408	103.29
789.583	104.51
789.758	104.59
789.934	102.62
790.109	102.26
790.284	101.94
790.459	101.39
790.635	102.42
790.81	103.41
790.985	102.5
791.16	103.18
791.336	103.43
791.511	103
791.686	103.67
791.861	102.96
792.036	104.2
792.211	103.9
792.387	102.76
792.562	101.86
792.737	103.41
792.912	104.35
793.087	103.52
793.262	102.68
793.437	103.24
793.612	103.32
793.787	102.23
793.962	102.56
794.137	103.44
794.312	103.84
794.487	102.29
794.662	101.67
794.837	102.16
795.011	102.03
795.186	101.43
795.361	103.21
795.536	103.01
795.711	101.68
795.886	103.28
796.06	102.84
796.235	103.14
796.41	103.02
796.585	104.11
796.76	104.44
796.934	101.27
797.109	102.82
797.284	102.16
797.458	101.66
797.633	101.86
797.808	102.38
797.982	102.21
798.157	104.58
798.332	102.33
798.506	103.45
798.681	103.03
798.855	103.03
799.03	104.06
799.204	103.08
799.379	102.14
799.553	102.68
799.728	102.69
799.902	102.35
800.077	104.22
800.251	102.56
800.426	102.77
800.6	103
800.775	103.92
800.949	102.68
801.123	104.21
801.298	102.11
801.472	104.45
801.647	102.99
801.821	102.77
801.995	102.07
802.169	103.95
802.344	101.42
802.518	102.15
802.692	101.64
802.867	102.15
803.041	101.76
803.215	102.5
803.389	103.63
803.563	103.38
803.737	102.11
803.912	103.19
804.086	101.63
804.26	103.27
804.434	103.97
804.608	100.39
804.782	103.3
804.956	101.3
805.13	101.35
805.304	101.65
805.478	100.37
805.652	101.99
805.826	102.15
806	102.77
806.174	102.02
806.348	101.39
806.522	101.96
806.696	102.8
806.87	102.27
807.044	102
807.218	101.23
807.392	102.98
807.566	102.92
807.739	100.4
807.913	102.83
808.087	100.79
808.261	101.08
808.435	101.35
808.608	100.59
808.782	102.04
808.956	102.44
809.13	102.6
809.303	102.84
809.477	101.26
809.651	100.27
809.824	100.37
809.998	101.34
810.172	100.53
810.345	98.54
810.519	100.31
810.692	101.68
810.866	100.19
811.04	100.74
811.213	101.24
811.387	101.3
811.56	100.39
811.734	99.98
811.907	99.94
812.081	100.82
812.254	100.71
812.428	100.63
812.601	100.26
812.774	100.3
812.948	100.93
813.121	100.27
813.295	102.14
813.468	100.58
813.641	100.14
813.815	99.88
813.988	98.66
814.161	98.17
814.335	100.95
814.508	99.56
814.681	99.8
814.854	98.59
815.028	98.24
815.201	100.96
815.374	100.75
815.547	100.08
815.72	99.16
815.894	100.66
816.067	100.61
816.24	100.28
816.413	97.89
816.586	101.04
816.759	98.95
816.932	98.12
817.105	99.09
817.278	98.72
817.452	98.77
817.625	100.57
817.798	100.22
817.971	98.8
818.144	99.18
818.317	100.42
818.49	97.6
818.662	99.54
818.835	97.84
819.008	97.72
819.181	100.59
819.354	97.02
819.527	98.55
819.7	98.31
819.873	99.68
820.046	98.83
820.218	99.17
820.391	99.16
820.564	98.02
820.737	98.02
820.909	97.51
821.082	98.08
821.255	96.99
821.428	98.22
821.6	98.8
821.773	97.97
821.946	98.56
822.118	98.13
822.291	99.76
822.464	97.28
822.636	96.14
822.809	97.21
822.982	98.49
823.154	96.2
823.327	96.77
823.499	97.36
823.672	97.17
823.844	100.53
824.017	99.54
824.189	97.16
824.362	98.03
824.534	98.46
824.707	95.36
824.879	98.03
825.052	97.91
825.224	99.97
825.396	96.59
825.569	97.31
825.741	98.82
825.914	97.45
826.086	97.19
826.258	97.37
826.431	96.85
826.603	96.87
826.775	98.19
826.947	95.85
827.12	97.31
827.292	96.19
827.464	98.15
827.636	96.98
827.809	95.48
827.981	97.42
828.153	98.48
828.325	98.9
828.497	96.23
828.669	96.94
828.842	96.6
829.014	95.17
829.186	94.36
829.358	94.53
829.53	96.41
829.702	97.42
829.874	95.73
830.046	96.85
830.218	98.25
830.39	96.15
830.562	95.61
830.734	96.83
830.906	95.39
831.078	97.25
831.25	95.67
831.422	93.9
831.594	97.63
831.766	96.46
831.937	97.63
832.109	95.47
832.281	96.37
832.453	96.54
832.625	94.82
832.797	94.38
832.968	95.73
833.14	97.66
833.312	94.45
833.484	96.25
833.655	96.16
833.827	94.19
833.999	95.11
834.171	95.04
834.342	96.67
834.514	95.78
834.686	95.19
834.857	97.02
835.029	94.54
835.2	95.32
835.372	94.35
835.544	94.79
835.715	94.94
835.887	94.51
836.058	94.36
836.23	94.11
836.401	94.99
836.573	95.37
836.744	94.77
836.916	91.99
837.087	93.76
837.259	95.72
837.43	96.79
837.602	92.66
837.773	94.31
837.945	93.7
838.116	94.32
838.287	94.19
838.459	94.67
838.63	94.74
838.801	94.05
838.973	94.04
839.144	93.81
839.315	93.04
839.487	93.54
839.658	93.37
839.829	93.79
840	93.14
840.172	95.11
840.343	91.5
840.514	92.57
840.685	93.12
840.856	92.92
841.027	92.27
841.199	92.94
841.37	92.17
841.541	92.06
841.712	92.51
841.883	93.82
842.054	93.18
842.225	92.03
842.396	95.01
842.567	92.92
842.738	93.64
842.909	92.44
843.08	93.38
843.251	93.38
843.422	93.71
843.593	92.45
843.764	91.57
843.935	92.67
844.106	91.34
844.277	91.85
844.448	91.26
844.619	91.91
844.79	91.65
844.96	90.72
845.131	91.17
845.302	94.06
845.473	91.81
845.644	91.16
845.814	93.27
845.985	91.27
846.156	91.71
846.327	93.84
846.497	92.75
846.668	91.6
846.839	91.78
847.01	91.73
847.18	91.06
847.351	93.06
847.522	91.32
847.692	90.74
847.863	91.84
848.033	92.34
848.204	91.27
848.375	90.75
848.545	89.07
848.716	88.84
848.886	89.38
849.057	92.22
849.227	89.21
849.398	89.02
849.568	89.83
849.739	88.75
849.909	90.88
850.08	91.8
850.25	92.54
850.421	90.58
850.591	87.84
850.761	86.79
850.932	90.27
851.102	90.89
851.272	88.76
851.443	91.43
851.613	91.46
851.783	90.91
851.954	88.45
852.124	89.11
852.294	89.03
852.465	88.17
852.635	90.3
852.805	92.14
852.975	90
853.145	87.4
853.316	89.56
853.486	91.17
853.656	90.27
853.826	88.94
853.996	89.28
854.166	90.78
854.337	89.79
854.507	90.78
854.677	90.6
854.847	87.93
855.017	89.76
855.187	86.9
855.357	89.42
855.527	87.16
855.697	90.14
855.867	88.24
856.037	91.35
856.207	86.7
856.377	88.29
856.547	88.94
856.717	86.68
856.887	90.55
857.057	92.93
857.227	90.39
857.397	87.47
857.566	87.57
857.736	89.23
857.906	90.44
858.076	88.38
858.246	87.55
858.416	87.36
858.585	88.86
858.755	86.91
858.925	90.72
859.095	86.54
859.264	88.25
859.434	88.49
859.604	86.66
859.774	86.96
859.943	90.52
860.113	86.08
860.283	86.83
860.452	85.72
860.622	89.36
860.791	85.69
860.961	87.64
861.131	88.21
861.3	85.54
861.47	90.01
861.639	87.08
861.809	88
861.978	91.33
862.148	88.32
862.318	88.2
862.487	84.13
862.657	88.09
862.826	87.88
862.995	86.74
863.165	87.85
863.334	88.51
863.504	87.85
863.673	90.46
863.843	88.28
864.012	87.28
864.181	86.71
864.351	89.95
864.52	87.71
864.689	87.72
864.859	87.19
865.028	85.83
865.197	87.31
865.366	86.25
865.536	85.2
865.705	85.7
865.874	88.26
866.043	87.38
866.213	90.85
866.382	84.88
866.551	86.52
866.72	85.42
866.889	86.76
867.059	86.39
867.228	88.37
867.397	84.06
867.566	88.1
867.735	81.82
867.904	81.65
868.073	86.59
868.242	88.47
868.411	89.1
868.58	85.21
868.749	85.59
868.918	87.37
869.087	87.71
869.256	85.9
869.425	84.46
869.594	84.13
869.763	85.65
869.932	82.31
870.101	84.58
870.27	87.3
870.439	86.16
870.608	85.62
870.777	84.91
870.945	84.74
871.114	82.95
871.283	85.7
871.452	85.58
871.621	86.94
871.789	86.13
871.958	86.85
872.127	81.81
872.296	88.22
872.464	85.58
872.633	86.33
872.802	84.96
872.971	85.65
873.139	83.42
873.308	84.4
873.477	89.86
873.645	85.26
873.814	85.31
873.983	88.69
874.151	82.4
874.32	84.18
874.488	82.92
874.657	85.5
874.826	80.94
874.994	85.61
875.163	86.25
875.331	81.06
875.5	79.76
875.668	82.86
875.837	84.19
876.005	82.63
876.174	82.25
876.342	86.41
876.51	85.06
876.679	85.02
876.847	87.39
877.016	81.25
877.184	80.62
877.352	85.16
877.521	84.32
877.689	86.57
877.857	85.24
878.026	85.75
878.194	84.38
878.362	85.29
878.531	84.65
878.699	85.88
878.867	79.63
879.036	85.95
879.204	84.12
879.372	84.62
879.54	82.91
879.708	82.81
879.877	84.74
880.045	80
880.213	81.47
880.381	84.05
880.549	88.69
880.717	82.92
880.885	87.46
881.054	85.75
881.222	83.55
881.39	84.99
881.558	82.58
881.726	85.37
881.894	82.43
882.062	84.16
882.23	90.26
882.398	85.19
882.566	90.59
882.734	85.59
882.902	85.68
883.07	84.01
883.238	86.81
883.406	83.78
883.574	88.84
883.741	90.06
883.909	84.77
884.077	80.48
884.245	84.1
884.413	85.01
884.581	82.48
884.749	86.61
884.916	83.63
885.084	93.07
885.252	84.74
885.42	86.74
885.587	86.36
885.755	82.85
885.923	83.38
886.091	83.58
886.258	83.99
886.426	81.46
886.594	78.52
886.761	88.71
886.929	84.7
887.097	86.73
887.264	84.97
887.432	87.11
887.6	83.82
887.767	83.75
887.935	91.41
888.102	89.46
888.27	81.7
888.438	84.94
888.605	81.25
888.773	79.79
888.94	80.46
889.108	83.82
889.275	84.36
889.443	81.73
889.61	86.4
889.778	88.58
889.945	84.71
890.112	86.74
890.28	84.26
890.447	79.02
890.615	85.05
890.782	82.95
890.949	81.68
891.117	81.97
891.284	83.11
891.452	90.14
891.619	88.52
891.786	84.71
891.953	87.46
892.121	80.37
892.288	85.83
892.455	82.78
892.623	92.16
892.79	86.12
892.957	88.48
893.124	86.41
893.291	84.8
893.459	80.71
893.626	90.47
893.793	94.85
893.96	85.92
894.127	84.11
894.294	84.39
894.461	89.3
894.629	89.58
894.796	85.28
894.963	88.72
895.13	81.38
895.297	85.86
895.464	84.72
895.631	83.88
895.798	82.55
895.965	83.22
896.132	86.16
896.299	89.39
896.466	87.02
896.633	85.09
896.8	86.27
896.967	83.76
897.134	81.98
897.301	83.61
897.467	91.32
897.634	89.17
897.801	86.66
897.968	89.98
898.135	81.32
898.302	88.85
898.469	91.65
898.635	86.77
898.802	87.45
898.969	83.52
899.136	91.21
899.303	85.55
