Data from 2019-05-04_Transmission_20-12-13-420.txt Node
Date: Sat May 04 20:12:13 EDT 2019
User: dh1006
Spectrometer: USB4E01358
Autoset integration time: false
Trigger mode: 4
Integration Time (sec): 1.000000E-1
Scans to average: 10
Electric dark correction enabled: true
Nonlinearity correction enabled: false
Boxcar width: 0
Stray light correction enabled: false
XAxis mode: Wavelengths
Stop averaging: false
Number of Pixels in Spectrum: 3648
>>>>>Begin Spectral Data<<<<<
176.727	175.52
176.966	175.52
177.205	175.52
177.444	84.01
177.683	38.1
177.922	-95.67
178.161	79.77
178.4	1220.69
178.638	288.94
178.877	-550
179.116	67.15
179.355	-377.67
179.593	-248.99
179.832	-238
180.071	79.93
180.309	-157.28
180.548	90.06
180.786	30.11
181.025	186.88
181.263	880
181.502	212.52
181.74	88.72
181.979	128.56
182.217	3480
182.456	66.82
182.694	285.44
182.932	65.19
183.17	160.51
183.409	81.82
183.647	118.83
183.885	5243.48
184.123	116.24
184.361	96.38
184.6	111.57
184.838	81.24
185.076	124.34
185.314	74.04
185.552	67.87
185.79	132.1
186.028	106.45
186.266	55.72
186.503	87.24
186.741	110.6
186.979	54.15
187.217	44.96
187.455	156.4
187.693	125.4
187.93	118.88
188.168	117.83
188.406	98.57
188.643	116.18
188.881	103.86
189.119	226.55
189.356	152.73
189.594	93.54
189.831	229.59
190.069	31.93
190.306	50.21
190.543	66.05
190.781	244.07
191.018	73.34
191.256	66.15
191.493	-54.93
191.73	113.63
191.967	274.46
192.205	81.9
192.442	203.86
192.679	88.28
192.916	56.44
193.153	49.29
193.39	23.62
193.628	76.35
193.865	136.25
194.102	80.67
194.339	66.05
194.576	133.94
194.813	45.46
195.049	75.33
195.286	190.32
195.523	84.18
195.76	106.9
195.997	78.21
196.234	112.95
196.47	84.65
196.707	65.58
196.944	130.15
197.18	126.4
197.417	156.33
197.654	99.52
197.89	140.79
198.127	107.79
198.363	101.29
198.6	142.91
198.836	35.95
199.073	-6359.37
199.309	53.48
199.546	47.06
199.782	146.56
200.018	133.42
200.255	127.76
200.491	-110.22
200.727	64.15
200.963	72.51
201.199	100.7
201.436	192.26
201.672	49.4
201.908	109.55
202.144	117.28
202.38	131.38
202.616	111.13
202.852	185.03
203.088	234.51
203.324	116
203.56	86.32
203.796	129.96
204.032	57.11
204.268	93.52
204.503	835.53
204.739	68.72
204.975	88.2
205.211	209.51
205.446	347.42
205.682	109.35
205.918	180.58
206.153	112.73
206.389	127.79
206.625	105.63
206.86	126.42
207.096	88.24
207.331	49.93
207.567	105.43
207.802	100.36
208.037	89.4
208.273	76.09
208.508	126.16
208.744	98.38
208.979	720.8
209.214	115.8
209.449	41.57
209.685	105.57
209.92	89.7
210.155	146.14
210.39	168.35
210.625	215.32
210.86	105.61
211.095	720.18
211.33	88.55
211.565	63.74
211.8	102.11
212.035	108.99
212.27	147.53
212.505	258.93
212.74	562.55
212.975	191.04
213.21	63.57
213.444	175.69
213.679	119.16
213.914	174.91
214.149	257.79
214.383	55.45
214.618	231.29
214.853	111.42
215.087	56.66
215.322	89.65
215.556	104.56
215.791	91.7
216.025	163.03
216.26	34.38
216.494	285.01
216.729	102.29
216.963	100.67
217.197	66.62
217.432	223.23
217.666	148.77
217.9	79.36
218.135	95.92
218.369	45.61
218.603	42.97
218.837	136.99
219.071	256.95
219.306	55.65
219.54	253.2
219.774	110.95
220.008	70.33
220.242	55.61
220.476	52.42
220.71	83.23
220.944	12.71
221.178	250.82
221.411	77.88
221.645	-730.4
221.879	79.57
222.113	58.71
222.347	69.19
222.58	101.03
222.814	170.57
223.048	54.28
223.281	103.58
223.515	122.29
223.749	98.85
223.982	96.21
224.216	90.46
224.449	450.25
224.683	104.67
224.916	131.94
225.15	110.37
225.383	61.24
225.617	81.02
225.85	528.51
226.083	75.84
226.317	143.33
226.55	173.83
226.783	101
227.016	90.78
227.25	183.1
227.483	151.45
227.716	57.23
227.949	33.05
228.182	37.26
228.415	100
228.648	89.44
228.881	113.49
229.114	86.67
229.347	120.04
229.58	72.17
229.813	71.13
230.046	138.5
230.279	70.93
230.512	119.75
230.745	60.01
230.977	37.93
231.21	303.18
231.443	118.71
231.675	55.51
231.908	142.38
232.141	56.27
232.373	113.86
232.606	128.73
232.839	54.34
233.071	224.7
233.304	136.28
233.536	33.86
233.769	120.31
234.001	169.55
234.233	206.85
234.466	105.02
234.698	103.61
234.93	117.29
235.163	79.96
235.395	104.01
235.627	81.2
235.86	90.8
236.092	117.85
236.324	137.64
236.556	73.63
236.788	95.13
237.02	110.13
237.252	79.09
237.484	15.61
237.716	86.74
237.948	97.51
238.18	37.9
238.412	67.87
238.644	26.2
238.876	265.45
239.108	110.04
239.34	155.75
239.571	126.95
239.803	3208.7
240.035	59.33
240.267	130.41
240.498	91.12
240.73	62.56
240.962	162.67
241.193	65.53
241.425	72.39
241.656	100.92
241.888	76.54
242.119	155.46
242.351	83.45
242.582	86.09
242.814	76.02
243.045	198.4
243.277	164.77
243.508	201.09
243.739	176.56
243.971	62.25
244.202	61.88
244.433	98.03
244.664	94.39
244.896	100
245.127	147.67
245.358	179.44
245.589	226.76
245.82	104.94
246.051	113.43
246.282	116.41
246.513	110.83
246.744	91.98
246.975	89.59
247.206	85.79
247.437	104.41
247.668	143.92
247.899	117.29
248.129	87.17
248.36	100.43
248.591	101.41
248.822	70.32
249.052	119.42
249.283	83.89
249.514	172.29
249.744	309.95
249.975	103.36
250.206	59.09
250.436	107.74
250.667	138.77
250.897	104.7
251.128	194.4
251.358	86.44
251.589	181.65
251.819	122.1
252.049	74.18
252.28	88.28
252.51	120.38
252.74	80.5
252.971	84.53
253.201	100.88
253.431	129.94
253.661	125.99
253.891	81.64
254.121	94.38
254.352	102.56
254.582	107.49
254.812	106.91
255.042	64.03
255.272	134.11
255.502	90.84
255.732	101.46
255.962	52.57
256.192	235.77
256.421	79.09
256.651	112.36
256.881	95.22
257.111	66.72
257.341	78.21
257.57	189.95
257.8	-4.99
258.03	97.55
258.259	68.12
258.489	91.48
258.719	221.26
258.948	97.57
259.178	62.02
259.407	102.56
259.637	56.92
259.866	81.79
260.096	26.19
260.325	89.22
260.555	138.32
260.784	107.55
261.013	99.15
261.243	121.75
261.472	54.57
261.701	162.9
261.931	52.31
262.16	112.62
262.389	86.26
262.618	52.43
262.847	133.95
263.076	94.82
263.305	61.61
263.535	129.05
263.764	59.71
263.993	78.68
264.222	68.48
264.451	87.09
264.679	97.58
264.908	105.49
265.137	45.94
265.366	80.35
265.595	137.77
265.824	144.78
266.053	177.79
266.281	93.31
266.51	116.49
266.739	74.67
266.967	97.24
267.196	107.6
267.425	86.69
267.653	111.09
267.882	128.28
268.11	27.04
268.339	110.1
268.567	119.09
268.796	102.74
269.024	127.84
269.253	98.89
269.481	107.71
269.709	66.46
269.938	122
270.166	97.39
270.394	40.63
270.623	105.01
270.851	39.31
271.079	116.76
271.307	187.71
271.535	78.95
271.764	83.77
271.992	120.99
272.22	104.41
272.448	217.66
272.676	131.26
272.904	70.85
273.132	99.44
273.36	129.77
273.588	72.01
273.816	98.24
274.043	86.91
274.271	93.77
274.499	137.37
274.727	171.17
274.955	55.18
275.182	97.32
275.41	75.38
275.638	74.48
275.866	90.06
276.093	82.07
276.321	83.36
276.548	56.34
276.776	193.35
277.003	122.59
277.231	105.87
277.458	140.56
277.686	129.26
277.913	130.46
278.141	69.38
278.368	127.47
278.595	120.17
278.823	145.34
279.05	134.41
279.277	114.65
279.505	124.8
279.732	98.46
279.959	80.41
280.186	168.66
280.413	91.31
280.641	107.65
280.868	67.83
281.095	124.89
281.322	135.93
281.549	77.29
281.776	66.48
282.003	70.68
282.23	97.33
282.457	115.4
282.683	142.7
282.91	76.96
283.137	158.67
283.364	118.64
283.591	102.6
283.818	72.04
284.044	95.05
284.271	76.83
284.498	167.61
284.724	22.62
284.951	123.03
285.178	144.97
285.404	87.6
285.631	131.59
285.857	103.12
286.084	114.92
286.31	94.13
286.537	104.69
286.763	107.46
286.99	52.01
287.216	117.8
287.442	65.96
287.669	65.61
287.895	108.2
288.121	114.78
288.347	82.43
288.574	130.28
288.8	170.83
289.026	91.68
289.252	149.49
289.478	106.46
289.704	77.36
289.931	97.94
290.157	116.34
290.383	68.42
290.609	113.4
290.835	79.66
291.06	106.68
291.286	82.18
291.512	61.86
291.738	60.44
291.964	117.07
292.19	93.18
292.416	79.86
292.641	115.7
292.867	59.35
293.093	67.04
293.319	118.11
293.544	107.21
293.77	100.78
293.995	80.96
294.221	71
294.447	110.53
294.672	153.01
294.898	82.88
295.123	78.25
295.349	80.95
295.574	114.19
295.799	83.71
296.025	79.62
296.25	102.63
296.476	127.55
296.701	124.93
296.926	94.14
297.151	65.5
297.377	83.35
297.602	80.78
297.827	133
298.052	71.43
298.277	100.97
298.502	95.59
298.727	117.17
298.953	72.45
299.178	97.02
299.403	86.2
299.628	89.85
299.852	93.38
300.077	130.74
300.302	48.11
300.527	121.86
300.752	93.99
300.977	119.91
301.202	65.59
301.426	99.12
301.651	56.94
301.876	96.42
302.101	94.16
302.325	70.26
302.55	76.66
302.775	116.7
302.999	110.37
303.224	77.39
303.448	82.82
303.673	100.29
303.897	88.08
304.122	88.31
304.346	234.81
304.571	103.11
304.795	115.71
305.019	76.39
305.244	70.98
305.468	99.09
305.692	99.39
305.917	84.01
306.141	116.43
306.365	80.94
306.589	97.01
306.813	59.5
307.038	331.39
307.262	110.91
307.486	91.72
307.71	68.62
307.934	105.82
308.158	79.6
308.382	92.05
308.606	120.55
308.83	80.51
309.054	56.89
309.278	74.89
309.502	61.42
309.725	88.93
309.949	82.99
310.173	157.07
310.397	186.32
310.62	53.49
310.844	91.19
311.068	122.82
311.292	70.38
311.515	77.31
311.739	99.43
311.962	77.65
312.186	123.05
312.41	112.64
312.633	71.16
312.857	93.26
313.08	75.37
313.303	85.34
313.527	116.55
313.75	111.13
313.974	37.89
314.197	167.19
314.42	48.97
314.644	80.46
314.867	75.68
315.09	71.61
315.313	71.58
315.536	109.59
315.76	84.47
315.983	87.79
316.206	94.09
316.429	72.77
316.652	134.26
316.875	104.97
317.098	64.67
317.321	90.02
317.544	154.6
317.767	56.63
317.99	113.49
318.213	116.69
318.436	76.82
318.658	61.11
318.881	80.04
319.104	77.9
319.327	68.34
319.55	85.14
319.772	79.14
319.995	70.2
320.218	97.08
320.44	100.52
320.663	98.94
320.885	74.5
321.108	136.6
321.331	196.28
321.553	109.31
321.776	99.01
321.998	128.72
322.22	109.73
322.443	62.28
322.665	84.38
322.888	61.53
323.11	112.85
323.332	100.23
323.555	92.58
323.777	152.87
323.999	117.62
324.221	92.74
324.443	86.32
324.666	135.73
324.888	61.62
325.11	129.28
325.332	61.22
325.554	94.86
325.776	78.91
325.998	84.73
326.22	132.14
326.442	47.24
326.664	87.78
326.886	59.26
327.108	82.19
327.33	113.79
327.551	93.83
327.773	94.83
327.995	92.01
328.217	58.24
328.439	90.21
328.66	77.35
328.882	66.15
329.104	81.89
329.325	96.27
329.547	100.33
329.769	117.95
329.99	55.6
330.212	103.72
330.433	118.97
330.655	91.86
330.876	96.38
331.098	109.3
331.319	84.41
331.54	67.59
331.762	82.01
331.983	159.52
332.204	112.19
332.426	52.46
332.647	183.67
332.868	101.26
333.089	79.97
333.311	68.1
333.532	101.74
333.753	129.79
333.974	128.24
334.195	82.58
334.416	52.58
334.637	82.45
334.858	70.19
335.079	61.31
335.3	99.52
335.521	75.27
335.742	111.16
335.963	72.01
336.184	64.31
336.405	96.51
336.626	126.35
336.846	91.84
337.067	58.4
337.288	100
337.509	77.75
337.729	71.99
337.95	118.25
338.171	99.37
338.391	94.31
338.612	74.9
338.833	102.01
339.053	61.77
339.274	92.34
339.494	71.49
339.715	90.39
339.935	60.13
340.156	100
340.376	123.5
340.596	45.19
340.817	56.56
341.037	59.03
341.257	60.34
341.478	101.39
341.698	93.81
341.918	81.22
342.138	110.34
342.359	81.29
342.579	64.11
342.799	66.99
343.019	79.92
343.239	98.87
343.459	84.54
343.679	47.39
343.899	171.09
344.119	116.33
344.339	73.54
344.559	85.37
344.779	90.39
344.999	89.85
345.219	71.07
345.439	76.72
345.658	63.48
345.878	110.5
346.098	102.38
346.318	78.58
346.537	94.88
346.757	108.58
346.977	80.88
347.196	117.89
347.416	66.71
347.636	90.77
347.855	92.83
348.075	118.58
348.294	71.43
348.514	108.79
348.733	79.32
348.953	118.34
349.172	101.84
349.392	52.87
349.611	68.3
349.83	75.16
350.05	87.36
350.269	75.03
350.488	110.14
350.707	103.02
350.927	86.65
351.146	101.9
351.365	85.8
351.584	81.2
351.803	71.64
352.023	94.58
352.242	66.86
352.461	62.74
352.68	74.96
352.899	85.43
353.118	103.44
353.337	103.12
353.556	98.87
353.775	95.29
353.993	74.55
354.212	60.1
354.431	82.08
354.65	156.16
354.869	55.89
355.088	79.88
355.306	140.31
355.525	70.46
355.744	82.88
355.962	76.67
356.181	64.76
356.4	45.02
356.618	85.47
356.837	48.25
357.055	80.3
357.274	95.99
357.492	109.34
357.711	123.94
357.929	35.7
358.148	75.56
358.366	72.28
358.585	106.79
358.803	76.83
359.021	107.57
359.24	120.82
359.458	114.73
359.676	74.41
359.894	72.36
360.113	82.94
360.331	80.59
360.549	49.73
360.767	108.41
360.985	91.7
361.203	92.56
361.421	83.75
361.639	107.41
361.857	103.08
362.075	46.53
362.293	75.55
362.511	76.53
362.729	71.68
362.947	164.43
363.165	63.49
363.383	113.76
363.601	69.76
363.819	70.43
364.036	86.44
364.254	93.8
364.472	82.98
364.689	97.33
364.907	84.15
365.125	96.63
365.342	97.92
365.56	99.53
365.778	113.06
365.995	80.17
366.213	109.69
366.43	123.37
366.648	104.44
366.865	76.04
367.083	72.94
367.3	89.72
367.517	47.73
367.735	65.89
367.952	74.69
368.17	78.27
368.387	64.55
368.604	83.04
368.821	81.2
369.039	91.98
369.256	75.97
369.473	42.19
369.69	60.2
369.907	89.7
370.124	73.89
370.341	92.98
370.558	79.57
370.776	97.29
370.993	65.46
371.21	131.04
371.426	82.89
371.643	107.77
371.86	87.74
372.077	83.18
372.294	71.43
372.511	82.36
372.728	83.09
372.945	110.1
373.161	80.61
373.378	89.97
373.595	59.1
373.811	61.48
374.028	71.06
374.245	100
374.461	113.76
374.678	96.45
374.895	70.09
375.111	92.15
375.328	59.63
375.544	71.34
375.761	82.94
375.977	73.82
376.194	69.18
376.41	44.59
376.626	96.38
376.843	54.58
377.059	55.93
377.275	52.59
377.492	61.89
377.708	66.24
377.924	81.82
378.14	62.3
378.357	50.18
378.573	91.04
378.789	53.07
379.005	61.55
379.221	68.12
379.437	76.74
379.653	104.59
379.869	76.82
380.085	52.6
380.301	56.57
380.517	54.66
380.733	58.02
380.949	61.52
381.165	55.61
381.381	54.11
381.597	68.21
381.813	65.18
382.028	58.12
382.244	65.06
382.46	81.39
382.676	28.93
382.891	59.07
383.107	82.89
383.323	77.19
383.538	46.59
383.754	72.58
383.969	59.29
384.185	49.62
384.4	69.82
384.616	95.47
384.831	44.59
385.047	44.64
385.262	67.82
385.478	74.63
385.693	58.13
385.909	39.29
386.124	64.94
386.339	48.65
386.554	57.9
386.77	49.47
386.985	56.27
387.2	43.2
387.415	43.25
387.631	49.97
387.846	38.2
388.061	62.64
388.276	52.66
388.491	45.99
388.706	45.06
388.921	36.69
389.136	56.12
389.351	34.58
389.566	48.43
389.781	42.77
389.996	55.7
390.211	60.48
390.426	57.55
390.641	40.58
390.855	53.6
391.07	44.2
391.285	31.83
391.5	36.01
391.714	29.67
391.929	37.7
392.144	20.84
392.358	42.89
392.573	41.14
392.788	33.02
393.002	35.62
393.217	45.94
393.431	32.54
393.646	32.86
393.86	36.88
394.075	32.75
394.289	35.11
394.504	32.97
394.718	28.4
394.933	38.09
395.147	37.87
395.361	39.82
395.576	41.47
395.79	23.85
396.004	27.16
396.218	39.5
396.432	23.41
396.647	36.73
396.861	28.42
397.075	29.23
397.289	29.08
397.503	27.26
397.717	29.27
397.931	33.27
398.145	36.25
398.359	24.44
398.573	27.46
398.787	22.07
399.001	27.01
399.215	21.48
399.429	26.65
399.643	23.22
399.857	31.25
400.07	23.2
400.284	20.5
400.498	23.66
400.712	24.61
400.925	16.76
401.139	24.16
401.353	32.36
401.566	25.09
401.78	18.51
401.994	22.32
402.207	19.51
402.421	22.52
402.634	19.77
402.848	19.85
403.061	18.03
403.275	23.71
403.488	21.25
403.702	18.36
403.915	21.53
404.128	14.52
404.342	12.7
404.555	21.46
404.768	17.98
404.982	14.66
405.195	18.56
405.408	17.18
405.621	19.92
405.835	16.38
406.048	16.38
406.261	19.72
406.474	15.23
406.687	17.72
406.9	18.39
407.113	16.75
407.326	17.64
407.539	17.3
407.752	15.76
407.965	11.73
408.178	14.84
408.391	16
408.604	18.34
408.817	16.37
409.029	16.71
409.242	17.29
409.455	15.61
409.668	14.18
409.881	11.94
410.093	17.44
410.306	13.66
410.519	14.94
410.731	15.05
410.944	14.01
411.157	16.67
411.369	13.19
411.582	15.54
411.794	13.72
412.007	14.83
412.219	12.89
412.432	12.04
412.644	14
412.857	14.77
413.069	14.92
413.281	14.96
413.494	14.1
413.706	14.9
413.918	15.04
414.131	14.26
414.343	15.86
414.555	14.47
414.767	12.87
414.979	13.65
415.192	13.69
415.404	12.64
415.616	12.7
415.828	14.47
416.04	14.96
416.252	12.89
416.464	13
416.676	13.12
416.888	13.56
417.1	15.36
417.312	14.4
417.524	12.14
417.736	16.33
417.948	14.45
418.159	15.88
418.371	16.02
418.583	14.92
418.795	15.25
419.007	15.16
419.218	15.6
419.43	14.32
419.642	13.56
419.853	13.78
420.065	16.94
420.276	14.9
420.488	15.48
420.7	14.22
420.911	15.03
421.123	16.05
421.334	16.43
421.546	15.3
421.757	15.45
421.969	14.51
422.18	14.85
422.391	17.78
422.603	15.62
422.814	14.38
423.025	15.92
423.237	16.7
423.448	16.24
423.659	16.13
423.87	15.15
424.082	15.48
424.293	16.01
424.504	16.79
424.715	17.73
424.926	16.8
425.137	16.64
425.348	15.79
425.559	17.1
425.77	16
425.981	17.03
426.192	17.51
426.403	18.23
426.614	17.23
426.825	19.07
427.036	17.5
427.247	18.98
427.458	18.3
427.668	19.3
427.879	18.98
428.09	19.37
428.301	19.99
428.511	19.04
428.722	19.62
428.933	20.2
429.143	20.18
429.354	19.97
429.565	20.32
429.775	20.93
429.986	20.74
430.196	21.22
430.407	22.9
430.617	20.79
430.828	23.05
431.038	22.94
431.249	23.56
431.459	22.94
431.669	23.46
431.88	23.81
432.09	24.63
432.3	24.72
432.511	24.94
432.721	24.14
432.931	25.53
433.141	25.42
433.351	26.39
433.562	27.02
433.772	27.01
433.982	26.88
434.192	27.07
434.402	28.5
434.612	29.81
434.822	29.7
435.032	29.27
435.242	29.93
435.452	30.04
435.662	31.15
435.872	31.28
436.082	30.14
436.292	30.68
436.502	33.19
436.711	33.3
436.921	35.37
437.131	35.08
437.341	37.48
437.551	35.6
437.76	35.91
437.97	38.26
438.18	38.61
438.389	39.42
438.599	40.67
438.808	40.96
439.018	41.02
439.228	42.27
439.437	43.63
439.647	43.83
439.856	44.32
440.066	46.06
440.275	46.7
440.484	47.83
440.694	47.73
440.903	50.15
441.113	49.02
441.322	51.23
441.531	52.86
441.741	53.53
441.95	53.56
442.159	56.6
442.368	58.01
442.577	57.6
442.787	60.05
442.996	59.68
443.205	62.48
443.414	62.63
443.623	63.81
443.832	64.98
444.041	66.26
444.25	68.92
444.459	67.98
444.668	68.66
444.877	71.72
445.086	72.95
445.295	73.43
445.504	74.75
445.713	77.57
445.922	78.52
446.13	77.96
446.339	79.45
446.548	80.5
446.757	83.15
446.965	83.92
447.174	84.75
447.383	85.85
447.591	88.4
447.8	88.25
448.009	87.88
448.217	88.66
448.426	89.39
448.634	90.07
448.843	91.93
449.051	92.47
449.26	90.66
449.468	92.95
449.677	94.1
449.885	94.56
450.093	91.54
450.302	93.15
450.51	94
450.719	92.78
450.927	91.83
451.135	94.72
451.343	91.24
451.552	92.18
451.76	90.44
451.968	91.08
452.176	90.7
452.384	88.61
452.592	89.44
452.8	88.61
453.009	86.62
453.217	86.76
453.425	85.53
453.633	84.08
453.841	84.14
454.049	81.5
454.257	80.38
454.464	79.97
454.672	79.37
454.88	78.07
455.088	78.12
455.296	75.77
455.504	74.07
455.711	71.94
455.919	72.33
456.127	70.71
456.335	69.92
456.542	66.8
456.75	67.87
456.958	68.16
457.165	64.68
457.373	63.83
457.581	61.88
457.788	61.92
457.996	60.75
458.203	58.29
458.411	55.86
458.618	58.32
458.826	56.67
459.033	55.35
459.24	53.84
459.448	53.38
459.655	50.74
459.863	51.04
460.07	50.87
460.277	49.12
460.484	47.44
460.692	47.31
460.899	47.31
461.106	45.47
461.313	45.38
461.52	44.38
461.728	42.41
461.935	41.12
462.142	42.14
462.349	39.35
462.556	41.69
462.763	40.49
462.97	38.05
463.177	38.34
463.384	37.44
463.591	37.55
463.798	35.87
464.005	35.27
464.212	35.71
464.418	33.35
464.625	34.87
464.832	33.29
465.039	32.94
465.246	31.59
465.452	32.49
465.659	31.49
465.866	30.81
466.072	30.35
466.279	30.33
466.486	29.3
466.692	29.59
466.899	29.48
467.105	28.42
467.312	27.79
467.519	27.64
467.725	26.26
467.931	26.79
468.138	26.66
468.344	27.16
468.551	25.04
468.757	26.1
468.964	24.71
469.17	24.5
469.376	25.2
469.583	24.22
469.789	23.74
469.995	23.55
470.201	22.24
470.408	22.35
470.614	23.29
470.82	21.87
471.026	21.47
471.232	22.2
471.438	21.1
471.644	21.13
471.85	20.44
472.056	21.33
472.262	20.61
472.468	20.29
472.674	19.55
472.88	19.45
473.086	19.14
473.292	19.17
473.498	19.83
473.704	18.87
473.91	19.38
474.116	18.99
474.321	18.96
474.527	17.78
474.733	18.04
474.939	17.75
475.144	18.31
475.35	17.28
475.556	17.03
475.761	16.51
475.967	17.03
476.173	16.84
476.378	16.27
476.584	16.31
476.789	17.19
476.995	16.14
477.2	16.48
477.406	15.71
477.611	16.28
477.817	15.17
478.022	15.22
478.227	15.04
478.433	14.96
478.638	15.42
478.843	14
479.049	14.61
479.254	14.71
479.459	13.93
479.664	14.63
479.87	14.46
480.075	14.15
480.28	13.6
480.485	14.33
480.69	13.46
480.895	13.42
481.1	13.45
481.306	14.28
481.511	13.83
481.716	12.46
481.921	12.79
482.126	12.56
482.33	13.37
482.535	12.93
482.74	13.28
482.945	12.65
483.15	12.51
483.355	12.86
483.56	12.05
483.765	12.03
483.969	12.88
484.174	12.25
484.379	11.92
484.583	12.01
484.788	12.48
484.993	12.19
485.197	12
485.402	11.53
485.607	11.87
485.811	11.34
486.016	11.48
486.22	11.4
486.425	11.22
486.629	11.47
486.834	12.22
487.038	10.94
487.243	11.13
487.447	11.61
487.652	10.94
487.856	10.65
488.06	10.69
488.265	10.93
488.469	10.78
488.673	10.92
488.877	11.18
489.082	10.87
489.286	11.15
489.49	10.79
489.694	10.98
489.898	10.43
490.102	10.62
490.307	10.38
490.511	10.56
490.715	10.29
490.919	10.71
491.123	10.68
491.327	10.59
491.531	10.42
491.735	10.34
491.939	10.29
492.143	10.39
492.346	9.81
492.55	10.01
492.754	9.8
492.958	10.25
493.162	9.54
493.366	9.79
493.569	10.02
493.773	9.98
493.977	9.78
494.18	9.96
494.384	9.94
494.588	9.71
494.791	9.69
494.995	9.97
495.199	9.66
495.402	9.21
495.606	9.27
495.809	9.81
496.013	9.59
496.216	9.58
496.42	9.67
496.623	9.61
496.827	9.11
497.03	9.43
497.233	9.3
497.437	9.45
497.64	9.54
497.843	8.98
498.047	9.25
498.25	9.19
498.453	9.39
498.656	9.08
498.86	9.1
499.063	9.31
499.266	9.44
499.469	9.32
499.672	9.09
499.875	8.95
500.078	9.2
500.281	8.8
500.484	9.4
500.687	8.98
500.89	8.93
501.093	9.11
501.296	9.08
501.499	9.11
501.702	8.88
501.905	8.97
502.108	8.76
502.311	9.45
502.514	8.77
502.716	9.07
502.919	8.36
503.122	8.89
503.325	8.66
503.527	8.45
503.73	8.8
503.933	8.57
504.135	8.9
504.338	8.48
504.541	9.25
504.743	8.94
504.946	8.72
505.148	8.75
505.351	8.67
505.553	8.55
505.756	8.7
505.958	8.69
506.161	8.54
506.363	8.43
506.565	8.45
506.768	8.73
506.97	8.63
507.172	8.65
507.375	8.71
507.577	8.78
507.779	8.31
507.982	8.45
508.184	8.81
508.386	8.54
508.588	8.86
508.79	8.48
508.993	8.99
509.195	8.46
509.397	8.53
509.599	8.57
509.801	8.75
510.003	8.7
510.205	8.49
510.407	8.47
510.609	8.59
510.811	8.57
511.013	8.62
511.215	8.63
511.417	8.69
511.618	8.36
511.82	8.56
512.022	8.61
512.224	8.34
512.426	8.7
512.627	8.68
512.829	8.35
513.031	8.69
513.233	8.54
513.434	8.72
513.636	8.4
513.838	8.7
514.039	8.53
514.241	9.02
514.442	8.57
514.644	8.54
514.845	8.69
515.047	8.54
515.248	8.4
515.45	8.71
515.651	8.75
515.853	8.47
516.054	9.03
516.256	8.57
516.457	8.84
516.658	8.73
516.86	8.61
517.061	8.54
517.262	8.86
517.463	8.61
517.665	8.55
517.866	8.35
518.067	8.85
518.268	8.8
518.469	8.78
518.67	8.61
518.872	9.01
519.073	8.82
519.274	8.67
519.475	9.02
519.676	8.9
519.877	8.73
520.078	8.88
520.279	8.86
520.48	8.92
520.681	9.02
520.881	8.78
521.082	8.95
521.283	8.73
521.484	8.84
521.685	9.04
521.886	9
522.086	8.8
522.287	8.93
522.488	9.05
522.689	8.93
522.889	9.11
523.09	8.86
523.291	8.94
523.491	9.06
523.692	9.19
523.892	9.2
524.093	9.3
524.294	9.38
524.494	9.17
524.695	9.18
524.895	9.14
525.096	9.27
525.296	9.38
525.496	9.23
525.697	9.19
525.897	9.52
526.098	9.52
526.298	9.49
526.498	9.28
526.699	9.63
526.899	9.32
527.099	9.58
527.299	9.36
527.499	9.84
527.7	9.46
527.9	9.35
528.1	9.54
528.3	9.41
528.5	9.59
528.7	9.81
528.9	9.69
529.1	9.6
529.3	9.78
529.5	9.81
529.7	9.77
529.9	10
530.1	9.76
530.3	9.68
530.5	9.89
530.7	9.85
530.9	9.9
531.1	10.04
531.3	10.16
531.499	10.09
531.699	10.22
531.899	10.15
532.099	10.33
532.298	10.18
532.498	10.17
532.698	10.31
532.897	10.44
533.097	10.35
533.297	10.33
533.496	10.48
533.696	10.6
533.895	10.5
534.095	10.45
534.294	10.7
534.494	10.55
534.693	10.75
534.893	10.69
535.092	10.75
535.292	10.75
535.491	10.86
535.69	10.94
535.89	10.95
536.089	10.81
536.288	10.93
536.488	11.14
536.687	11.34
536.886	11.05
537.085	11.44
537.285	11.39
537.484	11.15
537.683	11.38
537.882	11.52
538.081	11.38
538.28	11.66
538.479	11.47
538.678	11.43
538.877	11.66
539.076	11.7
539.275	11.57
539.474	11.8
539.673	11.95
539.872	12.03
540.071	11.99
540.27	12.12
540.469	12.03
540.668	12.1
540.867	12.25
541.065	12.3
541.264	12.21
541.463	12.37
541.662	12.35
541.861	12.3
542.059	12.45
542.258	12.67
542.457	12.64
542.655	12.69
542.854	12.64
543.052	12.79
543.251	12.81
543.45	12.98
543.648	13.08
543.847	13
544.045	13.15
544.244	13.25
544.442	13.26
544.641	13.35
544.839	13.34
545.037	13.49
545.236	13.67
545.434	13.62
545.632	13.6
545.831	13.75
546.029	13.81
546.227	13.91
546.426	13.87
546.624	14.1
546.822	14.18
547.02	14.29
547.218	14.18
547.417	14.18
547.615	14.51
547.813	14.43
548.011	14.43
548.209	14.7
548.407	14.73
548.605	14.72
548.803	15.02
549.001	14.96
549.199	14.98
549.397	14.92
549.595	15.18
549.793	15.38
549.991	15.39
550.189	15.47
550.387	15.45
550.584	15.69
550.782	15.56
550.98	15.72
551.178	15.84
551.376	15.99
551.573	15.97
551.771	16.36
551.969	16.22
552.166	16.33
552.364	16.4
552.562	16.61
552.759	16.58
552.957	16.66
553.154	16.82
553.352	16.75
553.55	17.06
553.747	17.27
553.945	17.53
554.142	17.46
554.339	17.47
554.537	17.61
554.734	17.59
554.932	17.79
555.129	17.97
555.326	18.01
555.524	18.26
555.721	18.29
555.918	18.28
556.116	18.6
556.313	18.53
556.51	18.73
556.707	18.7
556.904	18.94
557.102	19.25
557.299	19.39
557.496	19.45
557.693	19.67
557.89	19.55
558.087	19.77
558.284	19.79
558.481	20.09
558.678	20.09
558.875	20.1
559.072	20.34
559.269	20.45
559.466	20.45
559.663	20.68
559.86	21.05
560.057	20.95
560.254	21.31
560.45	21.22
560.647	21.35
560.844	21.51
561.041	21.58
561.237	21.81
561.434	22.03
561.631	22.02
561.828	22.27
562.024	22.53
562.221	22.51
562.418	22.83
562.614	23.3
562.811	23.06
563.007	23.29
563.204	23.46
563.4	23.65
563.597	23.94
563.793	24.1
563.99	24.07
564.186	24.13
564.383	24.46
564.579	24.78
564.775	24.78
564.972	24.91
565.168	25.31
565.365	25.3
565.561	25.39
565.757	25.66
565.953	25.9
566.15	26.09
566.346	26.31
566.542	26.43
566.738	26.64
566.934	26.9
567.131	27.04
567.327	27.12
567.523	27.49
567.719	27.66
567.915	27.9
568.111	28.13
568.307	28.29
568.503	28.51
568.699	28.53
568.895	28.86
569.091	28.96
569.287	29.22
569.483	29.36
569.679	29.85
569.875	29.96
570.07	30.09
570.266	30.3
570.462	30.63
570.658	30.66
570.854	30.98
571.049	31.2
571.245	31.4
571.441	31.8
571.636	32.07
571.832	32.17
572.028	32.38
572.223	32.7
572.419	32.96
572.615	32.9
572.81	33.3
573.006	33.51
573.201	33.77
573.397	34.17
573.592	34.3
573.788	34.77
573.983	35
574.179	35.01
574.374	35.64
574.569	35.6
574.765	35.97
574.96	36.42
575.156	36.67
575.351	36.83
575.546	37.07
575.741	37.18
575.937	37.36
576.132	37.55
576.327	38.23
576.522	38.35
576.718	38.59
576.913	38.81
577.108	39.27
577.303	39.5
577.498	39.8
577.693	40.01
577.888	40.53
578.083	40.7
578.278	40.92
578.473	41.34
578.668	41.39
578.863	41.8
579.058	42.08
579.253	42.45
579.448	42.77
579.643	43.23
579.838	43.63
580.033	43.86
580.227	44.08
580.422	44.55
580.617	44.61
580.812	45.04
581.006	45.35
581.201	45.88
581.396	46.09
581.591	46.37
581.785	46.62
581.98	47.04
582.175	47.48
582.369	47.79
582.564	48.35
582.758	48.44
582.953	48.74
583.147	48.87
583.342	49.28
583.536	49.58
583.731	49.67
583.925	50.2
584.12	50.53
584.314	50.89
584.509	51.25
584.703	51.65
584.897	52.12
585.092	52.63
585.286	52.91
585.48	53.1
585.674	53.68
585.869	53.96
586.063	54.67
586.257	54.54
586.451	54.89
586.646	55.59
586.84	55.82
587.034	56.5
587.228	56.65
587.422	57.03
587.616	57.54
587.81	57.72
588.004	58.02
588.198	58.64
588.392	59.02
588.586	59.36
588.78	59.78
588.974	60.24
589.168	60.65
589.362	61.11
589.556	61.42
589.75	61.65
589.944	62.04
590.137	62.26
590.331	62.79
590.525	63.45
590.719	63.82
590.913	64.22
591.106	64.44
591.3	64.96
591.494	65.08
591.687	65.65
591.881	65.89
592.075	66.34
592.268	66.72
592.462	66.94
592.655	67.26
592.849	67.87
593.043	68.14
593.236	68.5
593.43	69.04
593.623	69.24
593.817	70.01
594.01	70.52
594.203	71.03
594.397	71.11
594.59	71.49
594.784	72.07
594.977	72.14
595.17	72.62
595.364	73.04
595.557	73.43
595.75	73.71
595.943	74.31
596.137	74.73
596.33	74.79
596.523	75.73
596.716	75.79
596.909	76.6
597.102	76.98
597.296	76.96
597.489	77.23
597.682	78.11
597.875	78.17
598.068	78.44
598.261	78.9
598.454	79.35
598.647	79.33
598.84	79.69
599.033	80.45
599.226	81.23
599.419	81.35
599.611	81.52
599.804	81.53
599.997	82.13
600.19	82.42
600.383	82.98
600.576	82.63
600.768	83.02
600.961	83.96
601.154	84.35
601.347	84.43
601.539	85.06
601.732	85.02
601.925	85.71
602.117	86.05
602.31	86.24
602.502	86.3
602.695	87.02
602.888	87.28
603.08	87.37
603.273	87.92
603.465	88.69
603.658	88.27
603.85	89
604.043	89.1
604.235	89.39
604.427	89.83
604.62	89.66
604.812	90.31
605.004	90.25
605.197	90.73
605.389	90.92
605.581	91.1
605.774	91.99
605.966	92.09
606.158	92.18
606.35	92.99
606.543	92.92
606.735	93.23
606.927	93.42
607.119	93.35
607.311	93.93
607.503	94.01
607.695	94.45
607.887	94.35
608.079	94.76
608.271	95.02
608.463	95.15
608.655	95.42
608.847	95.91
609.039	95.68
609.231	96.25
609.423	96.61
609.615	96.67
609.807	97.07
609.999	96.73
610.191	97.02
610.382	97.45
610.574	97.74
610.766	97.78
610.958	98.07
611.15	98.3
611.341	98.51
611.533	98.65
611.725	98.89
611.916	99.03
612.108	99.07
612.3	99.29
612.491	99.33
612.683	99.58
612.874	99.37
613.066	99.33
613.257	99.28
613.449	99.7
613.64	100.25
613.832	100.58
614.023	100.6
614.215	100.56
614.406	100.29
614.598	100.84
614.789	101
614.98	101.35
615.172	101.05
615.363	101.16
615.554	101.64
615.746	101.36
615.937	101.52
616.128	102.09
616.319	101.72
616.511	101.92
616.702	102.08
616.893	102.58
617.084	102.75
617.275	102.27
617.466	102.78
617.658	102.6
617.849	102.72
618.04	102.41
618.231	102.92
618.422	102.73
618.613	102.65
618.804	102.87
618.995	103.04
619.186	103.32
619.377	103.13
619.568	103.23
619.758	103.6
619.949	103.75
620.14	103.65
620.331	103.67
620.522	103.7
620.713	103.6
620.903	104.12
621.094	104.11
621.285	103.47
621.476	103.83
621.666	104.01
621.857	103.21
622.048	103.82
622.238	103.74
622.429	104.05
622.62	104.29
622.81	104.02
623.001	104.42
623.191	103.91
623.382	103.47
623.572	103.39
623.763	103.71
623.953	103.92
624.144	104.02
624.334	104.18
624.525	103.97
624.715	103.94
624.905	104.03
625.096	104.34
625.286	103.65
625.477	103.97
625.667	103.75
625.857	103.54
626.047	103.8
626.238	103.72
626.428	103.72
626.618	103.81
626.808	104
626.999	104.07
627.189	104.01
627.379	103.92
627.569	104.39
627.759	104.1
627.949	103.89
628.139	103.39
628.329	103.57
628.519	103.94
628.709	103.83
628.899	103.37
629.089	103.63
629.279	103.75
629.469	103.5
629.659	103.45
629.849	103.78
630.039	103.62
630.229	103.23
630.419	103.37
630.609	103.48
630.798	103.99
630.988	103.5
631.178	103.84
631.368	103.3
631.557	103.29
631.747	102.95
631.937	102.8
632.127	103.09
632.316	103.19
632.506	102.69
632.696	103.09
632.885	102.88
633.075	103.16
633.264	102.88
633.454	102.86
633.643	102.61
633.833	103.06
634.022	102.93
634.212	102.59
634.401	102.69
634.591	102.41
634.78	102.83
634.97	102.73
635.159	102.6
635.348	102.49
635.538	102.42
635.727	102.35
635.916	102.53
636.106	102.66
636.295	102.66
636.484	102.52
636.674	102.36
636.863	102.55
637.052	102.71
637.241	102.17
637.43	102.54
637.619	102.59
637.809	102.35
637.998	102.04
638.187	102.62
638.376	102.5
638.565	102.11
638.754	102.29
638.943	101.92
639.132	102.02
639.321	102.55
639.51	101.99
639.699	101.91
639.888	102.18
640.077	101.84
640.266	101.94
640.455	101.94
640.643	101.87
640.832	101.59
641.021	101.7
641.21	101.58
641.399	101.83
641.587	101.49
641.776	101.38
641.965	101.28
642.154	101.26
642.342	101.25
642.531	101.43
642.72	101.39
642.908	101.34
643.097	100.82
643.286	101.07
643.474	100.94
643.663	100.59
643.851	100.64
644.04	100.55
644.228	100.91
644.417	100.28
644.605	100.63
644.794	100.53
644.982	100.68
645.171	100.57
645.359	100.28
645.547	100.55
645.736	100.17
645.924	99.99
646.112	99.97
646.301	100.23
646.489	100.03
646.677	100.22
646.866	100.2
647.054	100.61
647.242	100.23
647.43	100.5
647.618	100.2
647.807	100.68
647.995	100.18
648.183	100.63
648.371	100.23
648.559	100.14
648.747	99.66
648.935	99.9
649.123	100.18
649.311	100.17
649.499	99.94
649.687	99.85
649.875	99.45
650.063	99.95
650.251	100.24
650.439	100.31
650.627	100.24
650.815	100.11
651.003	99.98
651.191	99.79
651.378	99.66
651.566	99.51
651.754	99.57
651.942	99.48
652.13	99.47
652.317	99.33
652.505	99.48
652.693	99.75
652.88	99.08
653.068	99.23
653.256	99.24
653.443	99.15
653.631	99.25
653.819	99.55
654.006	99.5
654.194	98.95
654.381	99.14
654.569	98.81
654.756	98.75
654.944	99.17
655.131	99.03
655.319	99.11
655.506	99.28
655.693	99.46
655.881	99.53
656.068	99.28
656.256	99.29
656.443	99.2
656.63	99.53
656.818	99.33
657.005	99.37
657.192	99.35
657.379	99.53
657.567	99.14
657.754	98.95
657.941	99.64
658.128	99.75
658.315	99.08
658.502	99.61
658.69	98.98
658.877	99.32
659.064	99.34
659.251	99.8
659.438	99.13
659.625	99.66
659.812	99.25
659.999	99.22
660.186	98.87
660.373	98.97
660.56	98.89
660.747	98.93
660.934	99.38
661.121	99.39
661.308	99.35
661.494	99.36
661.681	99.23
661.868	99.16
662.055	99.24
662.242	99.47
662.428	99.43
662.615	99.05
662.802	99.34
662.989	99.27
663.175	99.44
663.362	99.64
663.549	99.39
663.735	99.73
663.922	99.92
664.109	99.6
664.295	99.63
664.482	99.74
664.668	99.39
664.855	99.55
665.041	99.5
665.228	99.17
665.414	99.1
665.601	99.06
665.787	99.22
665.974	98.95
666.16	99.48
666.347	99.66
666.533	99.53
666.719	99.21
666.906	99.03
667.092	98.82
667.278	99.06
667.465	99.33
667.651	99.21
667.837	99.28
668.023	99.32
668.21	99.13
668.396	99.45
668.582	99.19
668.768	99.49
668.954	99.2
669.14	99.36
669.327	99.2
669.513	99.27
669.699	99.1
669.885	99.23
670.071	99.37
670.257	99.22
670.443	98.92
670.629	98.9
670.815	99
671.001	99.29
671.187	99.16
671.373	99.04
671.559	98.52
671.744	99.18
671.93	99.26
672.116	99.11
672.302	98.93
672.488	99.53
672.674	99.13
672.859	99.36
673.045	99.43
673.231	99.61
673.417	99.71
673.602	99.92
673.788	100.01
673.974	99.56
674.159	99.98
674.345	100.03
674.531	100.11
674.716	99.83
674.902	100.03
675.087	99.73
675.273	99.74
675.459	99.72
675.644	99.82
675.83	99.59
676.015	99.76
676.2	99.93
676.386	99.78
676.571	99.29
676.757	99.64
676.942	99.39
677.128	99.53
677.313	99.83
677.498	99.8
677.684	100.15
677.869	99.84
678.054	99.89
678.24	99.98
678.425	100.05
678.61	99.97
678.795	100.31
678.98	99.87
679.166	100.39
679.351	100.31
679.536	100.35
679.721	100.5
679.906	100.04
680.091	99.88
680.276	99.96
680.461	99.93
680.647	99.95
680.832	100.14
681.017	99.82
681.202	100.16
681.387	99.8
681.572	99.85
681.756	99.74
681.941	100.01
682.126	100.27
682.311	100.23
682.496	99.87
682.681	99.99
682.866	100.06
683.051	100.01
683.235	99.61
683.42	99.78
683.605	100.02
683.79	99.54
683.974	99.71
684.159	99.81
684.344	100.21
684.529	99.89
684.713	99.98
684.898	100.18
685.083	99.94
685.267	100.27
685.452	100.32
685.636	100.17
685.821	100.21
686.005	99.97
686.19	99.78
686.375	100.14
686.559	100.13
686.744	100.13
686.928	100.29
687.112	100.08
687.297	100.24
687.481	100.28
687.666	100.29
687.85	100.29
688.034	100.09
688.219	100.2
688.403	99.97
688.587	99.95
688.772	100.34
688.956	100.12
689.14	99.92
689.324	99.66
689.509	99.93
689.693	100.28
689.877	100.09
690.061	99.89
690.245	100.02
690.43	100.5
690.614	100.4
690.798	100.43
690.982	100.59
691.166	100.49
691.35	100.25
691.534	100.3
691.718	100.34
691.902	99.99
692.086	99.76
692.27	100.34
692.454	100.1
692.638	100.46
692.822	100.23
693.006	99.84
693.19	99.88
693.373	99.77
693.557	99.8
693.741	99.93
693.925	100.15
694.109	100.6
694.293	100.19
694.476	100.59
694.66	100.56
694.844	100.68
695.027	100.61
695.211	100.79
695.395	100.74
695.578	100.42
695.762	100.28
695.946	100.15
696.129	100.33
696.313	100.05
696.497	100.18
696.68	100.39
696.864	100.54
697.047	100.08
697.231	100.07
697.414	100.24
697.598	99.98
697.781	100.42
697.965	100.04
698.148	100.23
698.331	100.28
698.515	100.27
698.698	100.22
698.881	100.12
699.065	100.14
699.248	99.94
699.431	100.05
699.615	99.82
699.798	99.84
699.981	99.83
700.165	99.85
700.348	99.6
700.531	99.44
700.714	99.54
700.897	99.69
701.08	99.88
701.264	99.61
701.447	99.4
701.63	100.15
701.813	99.66
701.996	99.95
702.179	99.8
702.362	99.84
702.545	99.93
702.728	100.1
702.911	99.72
703.094	99.82
703.277	100.06
703.46	100.1
703.643	100.01
703.826	100.08
704.009	99.89
704.191	100.21
704.374	100.06
704.557	100.17
704.74	100.43
704.923	100.23
705.106	99.55
705.288	99.93
705.471	99.89
705.654	99.9
705.837	99.73
706.019	99.38
706.202	99.29
706.385	99.98
706.567	99.4
706.75	99.4
706.932	99.68
707.115	99.61
707.298	99.69
707.48	99.76
707.663	99.61
707.845	99.14
708.028	99.6
708.21	98.98
708.393	99.17
708.575	99.19
708.758	98.88
708.94	98.49
709.123	98.96
709.305	98.63
709.487	98.73
709.67	98.86
709.852	99.1
710.034	99.08
710.217	98.77
710.399	98.69
710.581	98.69
710.764	99.05
710.946	98.8
711.128	98.77
711.31	98.56
711.492	98.46
711.675	98.62
711.857	98.57
712.039	98.38
712.221	98.29
712.403	98.36
712.585	97.97
712.767	98.12
712.949	98.28
713.131	98.47
713.314	98.34
713.496	97.98
713.678	97.68
713.86	97.62
714.041	97.71
714.223	97.61
714.405	97.78
714.587	97.77
714.769	97.93
714.951	97.69
715.133	97.87
715.315	97.75
715.497	97.43
715.678	97.88
715.86	97.75
716.042	97.54
716.224	97.22
716.406	97.48
716.587	97.17
716.769	97.37
716.951	97.48
717.132	97.25
717.314	97.5
717.496	97.41
717.677	97.5
717.859	97.28
718.041	96.73
718.222	97
718.404	96.75
718.585	96.87
718.767	97.34
718.948	97.17
719.13	97.07
719.311	97.01
719.493	96.78
719.674	96.94
719.856	96.76
720.037	97
720.219	96.93
720.4	97.03
720.581	96.72
720.763	96.28
720.944	96.4
721.125	96.17
721.307	96.35
721.488	96.21
721.669	96.41
721.85	95.78
722.032	95.82
722.213	95.3
722.394	95.35
722.575	95.51
722.756	95.76
722.938	95.19
723.119	95.23
723.3	95.51
723.481	95.38
723.662	95.58
723.843	95.37
724.024	95.21
724.205	95.08
724.386	94.74
724.567	94.25
724.748	94.6
724.929	94.92
725.11	94.56
725.291	94.54
725.472	94.65
725.653	94.49
725.834	94.46
726.015	94.57
726.196	94.03
726.377	94.02
726.557	93.86
726.738	93.78
726.919	93.71
727.1	93.72
727.281	93.53
727.461	93.5
727.642	93.35
727.823	93.44
728.004	93.61
728.184	93.84
728.365	93.22
728.546	93.2
728.726	93.36
728.907	93.19
729.087	92.77
729.268	93.33
729.449	92.85
729.629	93.09
729.81	93.36
729.99	93.25
730.171	93.09
730.351	93.33
730.532	92.67
730.712	92.91
730.893	92.52
731.073	92.78
731.253	92.32
731.434	92.16
731.614	92.42
731.795	92.45
731.975	92.56
732.155	92.39
732.336	92.32
732.516	92.15
732.696	92
732.876	92.37
733.057	92.29
733.237	92.33
733.417	92.05
733.597	91.98
733.778	92.15
733.958	92.24
734.138	91.95
734.318	91.92
734.498	92.1
734.678	91.71
734.858	91.42
735.038	92.28
735.218	92.03
735.398	91.65
735.579	91.89
735.759	91.48
735.939	91.48
736.119	91.35
736.298	91.18
736.478	91.15
736.658	90.85
736.838	90.8
737.018	90.57
737.198	90.42
737.378	90.68
737.558	90.28
737.738	90.19
737.917	90.08
738.097	89.95
738.277	89.79
738.457	89.67
738.637	89.9
738.816	89.41
738.996	90.33
739.176	90.03
739.355	89.7
739.535	89.6
739.715	89.63
739.894	89.48
740.074	89.3
740.254	89.44
740.433	89.23
740.613	89.09
740.792	88.86
740.972	88.63
741.151	88.97
741.331	88.63
741.51	88.84
741.69	88.76
741.869	88.83
742.049	88.62
742.228	88.48
742.408	88.63
742.587	88.48
742.766	88.3
742.946	88.13
743.125	88.51
743.305	88.14
743.484	88.23
743.663	87.13
743.842	87.96
744.022	87.83
744.201	87.29
744.38	87.35
744.56	87.12
744.739	87.14
744.918	86.94
745.097	87.23
745.276	87.18
745.455	87.43
745.635	87.01
745.814	86.89
745.993	87.16
746.172	87.12
746.351	86.93
746.53	87.02
746.709	86.57
746.888	86.97
747.067	86.8
747.246	86.72
747.425	86.5
747.604	86.48
747.783	86.48
747.962	86.8
748.141	86.12
748.32	85.93
748.499	85.94
748.677	85.92
748.856	85.86
749.035	85.31
749.214	86.01
749.393	85.77
749.572	85.53
749.75	85.46
749.929	85.31
750.108	85.28
750.287	85.65
750.465	86.11
750.644	85.61
750.823	85.77
751.001	86.39
751.18	85.7
751.359	85.72
751.537	84.96
751.716	85.34
751.894	85.2
752.073	85.24
752.251	85.28
752.43	84.95
752.609	84.75
752.787	84.84
752.966	84.45
753.144	85.09
753.322	84.69
753.501	84.54
753.679	84.35
753.858	84.13
754.036	84.27
754.215	84.38
754.393	84.43
754.571	84.15
754.75	84.41
754.928	83.83
755.106	83.54
755.284	84.19
755.463	83.73
755.641	84.03
755.819	83.8
755.997	83.42
756.176	83.37
756.354	83.34
756.532	83.13
756.71	83.22
756.888	83.07
757.066	83.55
757.245	83.12
757.423	83.6
757.601	83.05
757.779	83.27
757.957	82.83
758.135	82.76
758.313	82.96
758.491	82.95
758.669	83.04
758.847	83.05
759.025	82.54
759.203	82.75
759.381	82.65
759.559	82.72
759.737	82.85
759.915	82.37
760.092	82.66
760.27	82.39
760.448	83.04
760.626	82.68
760.804	82.41
760.981	81.99
761.159	82.36
761.337	81.87
761.515	81.94
761.692	81.84
761.87	81.7
762.048	81.54
762.226	81.81
762.403	81.69
762.581	82.07
762.759	81.81
762.936	81.49
763.114	81.93
763.291	81.78
763.469	81.59
763.647	81.14
763.824	81.63
764.002	81.16
764.179	81.44
764.357	81.45
764.534	81.52
764.712	80.79
764.889	81.22
765.066	80.56
765.244	80.66
765.421	80.23
765.599	80.8
765.776	80.67
765.953	80.58
766.131	80.6
766.308	80.86
766.485	80.64
766.663	80.82
766.84	80.39
767.017	80.42
767.194	80.51
767.372	80.17
767.549	80.97
767.726	80.38
767.903	80.58
768.081	79.92
768.258	79.99
768.435	79.78
768.612	79.92
768.789	79.47
768.966	79.18
769.143	79.15
769.32	78.9
769.497	79.54
769.674	78.84
769.851	78.92
770.028	79.21
770.205	78.96
770.382	78.98
770.559	79.04
770.736	79.12
770.913	79.1
771.09	79.18
771.267	78.78
771.444	78.7
771.621	78.78
771.798	79.06
771.975	78.67
772.151	79.71
772.328	78.89
772.505	78.39
772.682	78.77
772.859	78.63
773.035	78.43
773.212	78.33
773.389	78.64
773.565	78.3
773.742	77.84
773.919	78.39
774.096	78.47
774.272	78.49
774.449	78.44
774.625	78.34
774.802	77.85
774.979	78.44
775.155	78.51
775.332	77.68
775.508	77.95
775.685	78.06
775.861	78.57
776.038	77.88
776.214	78.41
776.391	78.26
776.567	78.22
776.744	77.56
776.92	77.18
777.096	77.39
777.273	77.18
777.449	77.62
777.626	77.46
777.802	77.62
777.978	76.76
778.155	77.76
778.331	77.72
778.507	77.39
778.683	77.39
778.86	77.71
779.036	76.85
779.212	77.65
779.388	76.7
779.565	77.28
779.741	77.02
779.917	77.39
780.093	77.89
780.269	76.72
780.445	77.09
780.621	77.67
780.797	76.97
780.974	76.76
781.15	77.12
781.326	77.08
781.502	76.69
781.678	76.67
781.854	77.03
782.03	76.13
782.206	76.62
782.382	76.3
782.558	76.43
782.733	77.15
782.909	76.38
783.085	76.27
783.261	75.81
783.437	76.16
783.613	75.8
783.789	75.75
783.965	75.9
784.14	76.17
784.316	76.58
784.492	76.5
784.668	76.44
784.843	76.24
785.019	76.51
785.195	76.08
785.371	75.74
785.546	76.4
785.722	75.58
785.898	75.27
786.073	75.59
786.249	75.42
786.424	75.76
786.6	76.49
786.776	75.54
786.951	75.61
787.127	76.08
787.302	75.86
787.478	76.21
787.653	75.89
787.829	75.63
788.004	75.89
788.18	75.91
788.355	76.24
788.531	76.47
788.706	76
788.881	75.57
789.057	75.38
789.232	75.87
789.408	75.5
789.583	76.5
789.758	75.54
789.934	77.08
790.109	75.6
790.284	75.73
790.459	76.29
790.635	75.97
790.81	75.19
790.985	75.76
791.16	75.76
791.336	76.53
791.511	75.84
791.686	75.6
791.861	75.75
792.036	76.43
792.211	76.04
792.387	76.47
792.562	75.79
792.737	76.6
792.912	75.78
793.087	75.96
793.262	74.6
793.437	74.71
793.612	76.03
793.787	74.47
793.962	74.27
794.137	75.19
794.312	74.96
794.487	75.27
794.662	74.81
794.837	74.74
795.011	75.55
795.186	74.96
795.361	74.67
795.536	74.88
795.711	75.4
795.886	74.73
796.06	75.79
796.235	75.5
796.41	74.31
796.585	74.07
796.76	74.33
796.934	75.09
797.109	74.36
797.284	75.55
797.458	75.29
797.633	75.62
797.808	74.6
797.982	73.12
798.157	75.88
798.332	75.61
798.506	75.4
798.681	74.06
798.855	76.08
799.03	74.33
799.204	74.69
799.379	75.01
799.553	75.93
799.728	74.1
799.902	74.31
800.077	74.73
800.251	75.41
800.426	74.91
800.6	75.18
800.775	74.36
800.949	74.34
801.123	73.6
801.298	74.27
801.472	75.57
801.647	73.44
801.821	74.72
801.995	74.4
802.169	75.37
802.344	75.96
802.518	74.06
802.692	75.51
802.867	73.15
803.041	73.03
803.215	73.95
803.389	74.35
803.563	73.85
803.737	73.05
803.912	75.02
804.086	75.18
804.26	76.29
804.434	74.06
804.608	75.59
804.782	73.55
804.956	73.88
805.13	74.32
805.304	75.13
805.478	75.27
805.652	74.53
805.826	72.86
806	75.16
806.174	74.63
806.348	76.82
806.522	72.75
806.696	74.53
806.87	73.86
807.044	74.79
807.218	73.22
807.392	74.68
807.566	74.25
807.739	74.31
807.913	74.28
808.087	73.46
808.261	73.74
808.435	73.68
808.608	73.97
808.782	75.4
808.956	74.12
809.13	75.81
809.303	73.3
809.477	73.63
809.651	73.96
809.824	73.59
809.998	72.03
810.172	73.59
810.345	74.19
810.519	73.12
810.692	72.78
810.866	72.85
811.04	72.56
811.213	73.5
811.387	73.42
811.56	73.52
811.734	74.55
811.907	75.04
812.081	74.45
812.254	74.38
812.428	74.67
812.601	73.75
812.774	74.47
812.948	72.73
813.121	72.86
813.295	75.05
813.468	74.45
813.641	73.25
813.815	76.22
813.988	75.51
814.161	75.45
814.335	72.83
814.508	75.68
814.681	74.8
814.854	74.08
815.028	73.65
815.201	72.53
815.374	72.66
815.547	75.03
815.72	73.37
815.894	73.63
816.067	73.33
816.24	72.99
816.413	73.73
816.586	73.79
816.759	73.29
816.932	74.43
817.105	73.77
817.278	73.55
817.452	74.94
817.625	73.06
817.798	74.03
817.971	73.99
818.144	74.98
818.317	73.02
818.49	73.34
818.662	73.45
818.835	73.41
819.008	72.99
819.181	72.87
819.354	74.06
819.527	72.87
819.7	73.37
819.873	74.31
820.046	72.27
820.218	75.43
820.391	73.26
820.564	73.54
820.737	75.12
820.909	74.22
821.082	74.32
821.255	73.8
821.428	72.54
821.6	72.62
821.773	75.04
821.946	74.17
822.118	73.99
822.291	72.67
822.464	73.87
822.636	73.71
822.809	74.12
822.982	74.13
823.154	73.22
823.327	75.69
823.499	73.45
823.672	74.01
823.844	75.72
824.017	74.48
824.189	74.11
824.362	72.72
824.534	74.36
824.707	74.1
824.879	73.53
825.052	73.54
825.224	74.23
825.396	74.45
825.569	74.29
825.741	75.18
825.914	73.99
826.086	74.49
826.258	73.66
826.431	74.37
826.603	73.77
826.775	75.78
826.947	73.8
827.12	74.88
827.292	74.94
827.464	74.35
827.636	76
827.809	75.26
827.981	74.68
828.153	75.38
828.325	73.66
828.497	75.32
828.669	73.98
828.842	75.42
829.014	73.24
829.186	75.99
829.358	75.11
829.53	75.13
829.702	74.29
829.874	74.44
830.046	74.89
830.218	74.24
830.39	76.48
830.562	73.87
830.734	74.53
830.906	75.27
831.078	75.13
831.25	75.18
831.422	75.68
831.594	74.31
831.766	74.34
831.937	76.72
832.109	73.93
832.281	74.22
832.453	75.93
832.625	74.32
832.797	74.5
832.968	75.58
833.14	74.55
833.312	76
833.484	74.65
833.655	75.35
833.827	74.12
833.999	74.74
834.171	76.28
834.342	74.84
834.514	75.7
834.686	73.85
834.857	74.72
835.029	74.38
835.2	74.22
835.372	73.89
835.544	76.4
835.715	75.49
835.887	74.76
836.058	75.1
836.23	75.17
836.401	76.19
836.573	74.64
836.744	76.94
836.916	74.76
837.087	74.74
837.259	75.79
837.43	76.28
837.602	75.66
837.773	75.07
837.945	74.02
838.116	74.88
838.287	75.8
838.459	76.04
838.63	74.47
838.801	75.47
838.973	76.22
839.144	75.95
839.315	75.94
839.487	76.29
839.658	75.84
839.829	75.74
840	74.88
840.172	76.84
840.343	75.3
840.514	73.68
840.685	75.04
840.856	75.5
841.027	73.72
841.199	77
841.37	76.33
841.541	76.95
841.712	76.03
841.883	75.9
842.054	78.17
842.225	75.92
842.396	76.04
842.567	76.53
842.738	76.17
842.909	76.24
843.08	75.84
843.251	78.16
843.422	75.99
843.593	77.29
843.764	77.47
843.935	76.53
844.106	75.94
844.277	76.26
844.448	76.62
844.619	76.29
844.79	76.06
844.96	76.57
845.131	76.36
845.302	76.13
845.473	76.25
845.644	75.66
845.814	77.43
845.985	76.94
846.156	75.59
846.327	79.44
846.497	74.72
846.668	76.62
846.839	75.83
847.01	74.84
847.18	77.63
847.351	75.41
847.522	77.52
847.692	76.83
847.863	75.99
848.033	77.25
848.204	74.55
848.375	77.15
848.545	77.23
848.716	78.95
848.886	76.33
849.057	76.54
849.227	77.22
849.398	76.53
849.568	78.68
849.739	76.43
849.909	77.09
850.08	78.19
850.25	78.43
850.421	79.34
850.591	76.77
850.761	77.88
850.932	77.44
851.102	80.2
851.272	76.76
851.443	78.4
851.613	78.9
851.783	77.68
851.954	78.39
852.124	79.13
852.294	78.8
852.465	77.79
852.635	75.32
852.805	78.57
852.975	79.26
853.145	79.4
853.316	78.28
853.486	77.07
853.656	80.3
853.826	77.05
853.996	78.78
854.166	77.79
854.337	78.28
854.507	78.3
854.677	79.42
854.847	78.79
855.017	77.95
855.187	78.37
855.357	75.54
855.527	77.9
855.697	78.9
855.867	78.24
856.037	79.19
856.207	80.81
856.377	78.42
856.547	77.42
856.717	77.06
856.887	77
857.057	79.63
857.227	77.14
857.397	77.67
857.566	79.5
857.736	77.57
857.906	78.36
858.076	76.59
858.246	79.67
858.416	76.61
858.585	78.69
858.755	78.85
858.925	81.69
859.095	77.52
859.264	78.37
859.434	81.3
859.604	78.74
859.774	80.03
859.943	78.89
860.113	77.67
860.283	76.85
860.452	77.47
860.622	82.18
860.791	79.11
860.961	85.17
861.131	79.92
861.3	78.25
861.47	81.44
861.639	81.51
861.809	80.43
861.978	81.49
862.148	80.54
862.318	79.09
862.487	80.6
862.657	81.61
862.826	81.5
862.995	80.42
863.165	83.98
863.334	78.68
863.504	78.04
863.673	79.35
863.843	76.31
864.012	80.95
864.181	82.82
864.351	77.71
864.52	78.82
864.689	81.24
864.859	79.24
865.028	80.41
865.197	86.2
865.366	83.45
865.536	80.59
865.705	80.13
865.874	81.35
866.043	82.28
866.213	83.41
866.382	84.94
866.551	84.43
866.72	79.25
866.889	82.31
867.059	80.08
867.228	80.25
867.397	77.85
867.566	82.77
867.735	81.94
867.904	84.55
868.073	75.9
868.242	83.71
868.411	81.04
868.58	80.59
868.749	80.41
868.918	79.58
869.087	85.36
869.256	77.29
869.425	79.95
869.594	84.52
869.763	83.3
869.932	77.84
870.101	81.35
870.27	81.03
870.439	80.26
870.608	83.89
870.777	79.42
870.945	80.68
871.114	85.26
871.283	83.28
871.452	85.97
871.621	86.06
871.789	81.78
871.958	80.81
872.127	85.36
872.296	85.16
872.464	85.33
872.633	81.44
872.802	87.1
872.971	81.87
873.139	84.54
873.308	78.26
873.477	83.42
873.645	77.16
873.814	81.68
873.983	86.88
874.151	82.12
874.32	80.67
874.488	82.33
874.657	85.63
874.826	84.33
874.994	81.27
875.163	80.44
875.331	89.28
875.5	77.94
875.668	83.59
875.837	83.87
876.005	80.92
876.174	79.4
876.342	78.14
876.51	81.6
876.679	81.61
876.847	83.38
877.016	85.8
877.184	81.48
877.352	82.52
877.521	85.04
877.689	77.98
877.857	79.1
878.026	83.73
878.194	84.75
878.362	83.56
878.531	83.45
878.699	83.34
878.867	86.84
879.036	86.37
879.204	83.99
879.372	82.77
879.54	79.84
879.708	83.33
879.877	84.82
880.045	84.15
880.213	84.45
880.381	83.73
880.549	81.72
880.717	80.14
880.885	83.51
881.054	85.32
881.222	80.77
881.39	81.12
881.558	84.14
881.726	81.49
881.894	83.95
882.062	88.41
882.23	80.6
882.398	78.99
882.566	79.32
882.734	78.94
882.902	83.7
883.07	84.85
883.238	84.11
883.406	79.18
883.574	76.47
883.741	81.17
883.909	84.84
884.077	83.39
884.245	86.43
884.413	88.64
884.581	83.38
884.749	84.09
884.916	94.13
885.084	85.72
885.252	86.66
885.42	84.01
885.587	84.92
885.755	83.47
885.923	90.15
886.091	84.47
886.258	85.13
886.426	87.64
886.594	84.07
886.761	85.87
886.929	84.52
887.097	86.09
887.264	85.79
887.432	78.9
887.6	83.43
887.767	83.79
887.935	87.48
888.102	89.87
888.27	90.05
888.438	85.99
888.605	82.18
888.773	86.63
888.94	83.57
889.108	89.28
889.275	92.45
889.443	81.05
889.61	85.37
889.778	88.38
889.945	81.14
890.112	87.41
890.28	88.02
890.447	88.42
890.615	84.41
890.782	85.25
890.949	85.86
891.117	84.79
891.284	86.77
891.452	87
891.619	82.43
891.786	88.06
891.953	91.78
892.121	88.27
892.288	81.77
892.455	88.94
892.623	87.14
892.79	87.94
892.957	86.92
893.124	82.7
893.291	82.38
893.459	84.38
893.626	89.33
893.793	87.27
893.96	93.43
894.127	88.81
894.294	80.75
894.461	86.85
894.629	84.95
894.796	85.64
894.963	85.3
895.13	87.85
895.297	88.3
895.464	83.66
895.631	84.61
895.798	85.65
895.965	83.91
896.132	84.17
896.299	80.78
896.466	83.27
896.633	86.69
896.8	91.93
896.967	84.19
897.134	91.09
897.301	93.82
897.467	88.61
897.634	92.81
897.801	85.32
897.968	84.44
898.135	91.55
898.302	86.88
898.469	81.04
898.635	87.95
898.802	84.19
898.969	88.56
899.136	85.91
899.303	90.53
