Data from 2019-05-04_Transmission_20-11-00-819.txt Node
Date: Sat May 04 20:11:00 EDT 2019
User: dh1006
Spectrometer: USB4E01358
Autoset integration time: false
Trigger mode: 4
Integration Time (sec): 1.000000E-1
Scans to average: 10
Electric dark correction enabled: true
Nonlinearity correction enabled: false
Boxcar width: 0
Stray light correction enabled: false
XAxis mode: Wavelengths
Stop averaging: false
Number of Pixels in Spectrum: 3648
>>>>>Begin Spectral Data<<<<<
176.727	372.61
176.966	372.61
177.205	372.61
177.444	68.49
177.683	-233.33
177.922	119.03
178.161	308.75
178.4	177.59
178.638	346.64
178.877	6050
179.116	74.58
179.355	-307.91
179.593	1159.73
179.832	-484.67
180.071	93.39
180.309	16.23
180.548	212.43
180.786	49.03
181.025	104.75
181.263	-112
181.502	131.62
181.74	65.86
181.979	63.36
182.217	-2205
182.456	35.8
182.694	126.6
182.932	19.76
183.17	17.91
183.409	-10.51
183.647	92.02
183.885	850
184.123	51.53
184.361	18.16
184.6	-6.57
184.838	90.88
185.076	45.83
185.314	15.07
185.552	33.83
185.79	67.27
186.028	92.99
186.266	37.98
186.503	50.49
186.741	51.11
186.979	27.59
187.217	-4.82
187.455	47.9
187.693	132.92
187.93	123.63
188.168	9.19
188.406	94.53
188.643	87.21
188.881	98.64
189.119	243.14
189.356	45.98
189.594	30.73
189.831	111.77
190.069	11.45
190.306	38.66
190.543	47.23
190.781	124.05
191.018	-5.03
191.256	15.38
191.493	-121.11
191.73	70.96
191.967	-41.99
192.205	39.32
192.442	62.93
192.679	49.93
192.916	36.46
193.153	77.84
193.39	61.44
193.628	13.69
193.865	70.12
194.102	33.62
194.339	50.13
194.576	48.07
194.813	58.14
195.049	40.54
195.286	40.2
195.523	46.62
195.76	47.84
195.997	64.33
196.234	11.87
196.47	59.62
196.707	33.01
196.944	43.64
197.18	22.16
197.417	71.88
197.654	62.38
197.89	12.09
198.127	116.9
198.363	36.29
198.6	130.62
198.836	10.07
199.073	-1546.87
199.309	90.4
199.546	59.99
199.782	87.79
200.018	77.26
200.255	41.68
200.491	13.32
200.727	31.56
200.963	57.67
201.199	43.94
201.436	124.52
201.672	48.19
201.908	70.53
202.144	76.48
202.38	55.98
202.616	83.49
202.852	20.64
203.088	118
203.324	57.41
203.56	54.76
203.796	61.7
204.032	48.09
204.268	74.84
204.503	296.93
204.739	82.79
204.975	57.26
205.211	80.45
205.446	176.24
205.682	31.2
205.918	104.21
206.153	-77.57
206.389	139.93
206.625	78.92
206.86	24.73
207.096	39.81
207.331	64.78
207.567	87.7
207.802	38.64
208.037	55.93
208.273	9.89
208.508	52.37
208.744	106.22
208.979	206.15
209.214	50.5
209.449	83.84
209.685	55.29
209.92	35.26
210.155	95.06
210.39	115.68
210.625	128.11
210.86	73.46
211.095	319.27
211.33	23.42
211.565	14.25
211.8	63.97
212.035	48.85
212.27	55.68
212.505	2.58
212.74	49.06
212.975	134.97
213.21	29.63
213.444	133.14
213.679	-4.88
213.914	76.72
214.149	118.41
214.383	46.52
214.618	79.87
214.853	31.07
215.087	13.19
215.322	26.19
215.556	72.46
215.791	75.57
216.025	101.52
216.26	39.83
216.494	165.46
216.729	86.82
216.963	106.9
217.197	45.81
217.432	60.45
217.666	33.08
217.9	27.35
218.135	79.91
218.369	52.83
218.603	69.18
218.837	91.67
219.071	219.25
219.306	32.47
219.54	169.36
219.774	108.22
220.008	83.42
220.242	28.78
220.476	53.93
220.71	68.37
220.944	70.47
221.178	109.37
221.411	33.2
221.645	-361.23
221.879	66.9
222.113	26.41
222.347	60.6
222.58	51.64
222.814	96.22
223.048	66.25
223.281	90.85
223.515	51.84
223.749	76.88
223.982	49.74
224.216	42.65
224.449	292.4
224.683	33.28
224.916	33.91
225.15	4.65
225.383	70.4
225.617	36.72
225.85	260.8
226.083	84.84
226.317	50.16
226.55	24.04
226.783	65.09
227.016	43.71
227.25	125.13
227.483	113.66
227.716	21.41
227.949	76.3
228.182	-28.38
228.415	92.24
228.648	55.56
228.881	76.5
229.114	74.12
229.347	63.28
229.58	49.28
229.813	19.56
230.046	46.39
230.279	44.74
230.512	94.81
230.745	62.65
230.977	83.39
231.21	66.2
231.443	78.61
231.675	93.32
231.908	-51.52
232.141	52.11
232.373	78.96
232.606	62.27
232.839	59.22
233.071	73.15
233.304	119.24
233.536	10.86
233.769	42.05
234.001	73.07
234.233	176.53
234.466	23.7
234.698	86.7
234.93	110.44
235.163	84.78
235.395	-37.2
235.627	69.06
235.86	44.31
236.092	15.59
236.324	102.96
236.556	5.05
236.788	95.4
237.02	87.49
237.252	54.05
237.484	13.97
237.716	58.98
237.948	33.95
238.18	40.76
238.412	68.97
238.644	-13.92
238.876	0.17
239.108	48.86
239.34	1.46
239.571	75.2
239.803	-1750
240.035	29.78
240.267	49.39
240.498	47.38
240.73	71.03
240.962	119.42
241.193	32.42
241.425	66.84
241.656	43.91
241.888	54.1
242.119	27.28
242.351	103.47
242.582	75.15
242.814	90.31
243.045	51.77
243.277	68.92
243.508	17.15
243.739	75.13
243.971	58.34
244.202	44.73
244.433	0.04
244.664	78.21
244.896	112.96
245.127	60.51
245.358	68.52
245.589	113.99
245.82	61.96
246.051	94.89
246.282	141.65
246.513	73.94
246.744	16.09
246.975	29.1
247.206	12.62
247.437	64.29
247.668	102.18
247.899	29.21
248.129	72.32
248.36	56.18
248.591	49.58
248.822	46.03
249.052	96.61
249.283	-13.19
249.514	82.24
249.744	89.15
249.975	16.47
250.206	-1.34
250.436	37.09
250.667	144.06
250.897	76.79
251.128	118.98
251.358	47.67
251.589	225.79
251.819	18.48
252.049	61.65
252.28	31.64
252.51	53.95
252.74	12.26
252.971	69.26
253.201	19.72
253.431	68.11
253.661	32.39
253.891	56.38
254.121	22.83
254.352	37.14
254.582	58.11
254.812	35.45
255.042	67.82
255.272	196.21
255.502	37.77
255.732	56.66
255.962	46.28
256.192	45.64
256.421	58.93
256.651	80.03
256.881	49.46
257.111	28.92
257.341	24.98
257.57	140.47
257.8	-123.17
258.03	26.61
258.259	57.46
258.489	40.84
258.719	51.43
258.948	110.18
259.178	58.12
259.407	44.5
259.637	47.42
259.866	99.86
260.096	22.27
260.325	52.61
260.555	104.76
260.784	22.29
261.013	42.91
261.243	33.03
261.472	-12.44
261.701	-79.57
261.931	113.04
262.16	11.47
262.389	84.72
262.618	3.77
262.847	93.92
263.076	77.71
263.305	49.23
263.535	77.02
263.764	38.54
263.993	57.26
264.222	209.85
264.451	54.12
264.679	35.82
264.908	60.44
265.137	42.5
265.366	55.2
265.595	91.06
265.824	60.65
266.053	114.18
266.281	54.64
266.51	28.89
266.739	77.94
266.967	74.18
267.196	48.68
267.425	92.92
267.653	30.71
267.882	24.29
268.11	69.51
268.339	154.22
268.567	64.22
268.796	23.6
269.024	56.17
269.253	104.2
269.481	19.68
269.709	34.87
269.938	19.67
270.166	49.36
270.394	11.32
270.623	57.23
270.851	32.03
271.079	81.21
271.307	91.41
271.535	64.19
271.764	177.13
271.992	14.62
272.22	4.45
272.448	68.63
272.676	94.27
272.904	123.05
273.132	68.35
273.36	72.17
273.588	59.11
273.816	63.66
274.043	27.84
274.271	56.65
274.499	59.75
274.727	111.21
274.955	17
275.182	67.38
275.41	31.87
275.638	-3.91
275.866	96.24
276.093	82.22
276.321	43.74
276.548	57.12
276.776	105.95
277.003	50.26
277.231	106.47
277.458	98.96
277.686	46.18
277.913	60.96
278.141	48.93
278.368	48.91
278.595	46.07
278.823	35.35
279.05	52.4
279.277	48.15
279.505	103.03
279.732	72.96
279.959	88
280.186	15.9
280.413	63.7
280.641	76.52
280.868	53.16
281.095	79.71
281.322	15.93
281.549	79.53
281.776	42.26
282.003	59.46
282.23	72.78
282.457	75.49
282.683	62.07
282.91	45.78
283.137	34.76
283.364	51.57
283.591	28.22
283.818	27.34
284.044	79.29
284.271	0.04
284.498	113.95
284.724	49.57
284.951	35.34
285.178	3.27
285.404	69.91
285.631	39.52
285.857	47.35
286.084	87.44
286.31	-5.85
286.537	56.63
286.763	36.75
286.99	41.2
287.216	76.62
287.442	47.51
287.669	36.16
287.895	34.6
288.121	75.77
288.347	9.34
288.574	78.55
288.8	33.72
289.026	21.2
289.252	32.89
289.478	35.26
289.704	90.6
289.931	38.79
290.157	30.33
290.383	45.95
290.609	57.64
290.835	66.85
291.06	22.83
291.286	36.06
291.512	31.04
291.738	41.75
291.964	60.56
292.19	60.86
292.416	60.16
292.641	66.42
292.867	54.47
293.093	31.14
293.319	71.31
293.544	75.37
293.77	30.04
293.995	73.81
294.221	24.64
294.447	75.97
294.672	66.93
294.898	33.85
295.123	60.56
295.349	37.13
295.574	32.59
295.799	32.59
296.025	36.03
296.25	49.93
296.476	41.83
296.701	97.28
296.926	75.05
297.151	43.76
297.377	64.49
297.602	57.23
297.827	58.07
298.052	36.61
298.277	41.89
298.502	117.89
298.727	57.33
298.953	60.76
299.178	34.66
299.403	57.93
299.628	0.3
299.852	37.24
300.077	62.23
300.302	2.83
300.527	81.09
300.752	50.12
300.977	84.38
301.202	38.78
301.426	59.11
301.651	39.79
301.876	48.6
302.101	75.98
302.325	45.1
302.55	47.56
302.775	96.55
302.999	62.97
303.224	63.34
303.448	42.48
303.673	48.32
303.897	45.58
304.122	37.45
304.346	75.95
304.571	36.53
304.795	20.63
305.019	50.76
305.244	60.2
305.468	57.86
305.692	56.98
305.917	47.25
306.141	87.85
306.365	65.16
306.589	30.3
306.813	44.2
307.038	-254.37
307.262	45.93
307.486	13.97
307.71	57.97
307.934	50.85
308.158	35.06
308.382	51.53
308.606	51.84
308.83	39.48
309.054	42.47
309.278	44.4
309.502	52.32
309.725	54.58
309.949	63.06
310.173	71.48
310.397	56.14
310.62	18.63
310.844	68.53
311.068	64.64
311.292	25.74
311.515	35.35
311.739	42.69
311.962	49.5
312.186	56.33
312.41	73.89
312.633	48.2
312.857	52.24
313.08	51.62
313.303	56.4
313.527	40.69
313.75	76.15
313.974	42.95
314.197	42.96
314.42	35.54
314.644	28.48
314.867	92.3
315.09	45.4
315.313	53.67
315.536	73.48
315.76	49.46
315.983	39.82
316.206	34.5
316.429	17.43
316.652	-4.31
316.875	7.48
317.098	42.96
317.321	43.18
317.544	92.1
317.767	-34.74
317.99	85.17
318.213	79.91
318.436	21.35
318.658	73.26
318.881	68.43
319.104	50.71
319.327	60.25
319.55	42.99
319.772	66.47
319.995	43.18
320.218	53.5
320.44	72.23
320.663	30.48
320.885	48.18
321.108	81.21
321.331	97.8
321.553	74.54
321.776	45.96
321.998	104.14
322.22	68.46
322.443	60.71
322.665	78.45
322.888	31.53
323.11	48.87
323.332	73.29
323.555	72.04
323.777	28.17
323.999	-2.66
324.221	30.3
324.443	60.21
324.666	15.86
324.888	36.73
325.11	75.16
325.332	35.25
325.554	30.12
325.776	70.41
325.998	48.96
326.22	71.65
326.442	49.95
326.664	59.31
326.886	74.98
327.108	60.74
327.33	50.43
327.551	30.9
327.773	69.95
327.995	52.55
328.217	62.66
328.439	103.01
328.66	55.73
328.882	87.74
329.104	23.74
329.325	48.22
329.547	-3.66
329.769	25.43
329.99	38.55
330.212	48.75
330.433	63.94
330.655	52.3
330.876	49.43
331.098	91.91
331.319	64.35
331.54	26.94
331.762	61.81
331.983	109.65
332.204	49.24
332.426	22.42
332.647	30.01
332.868	43.45
333.089	83.74
333.311	6.64
333.532	77.47
333.753	68.48
333.974	81
334.195	38.9
334.416	59.39
334.637	47.23
334.858	64.43
335.079	64.06
335.3	72.17
335.521	41.16
335.742	53.29
335.963	72.8
336.184	53.44
336.405	55.8
336.626	114.49
336.846	73.72
337.067	29.92
337.288	1.29
337.509	32.18
337.729	43.66
337.95	-7.4
338.171	41.86
338.391	102.4
338.612	28.09
338.833	66.49
339.053	73.91
339.274	35.59
339.494	64.58
339.715	37.91
339.935	56.57
340.156	70.27
340.376	35.06
340.596	27.33
340.817	-0.23
341.037	38.8
341.257	49.48
341.478	68.53
341.698	67.63
341.918	91.19
342.138	29.45
342.359	13.97
342.579	-3.05
342.799	64.37
343.019	53.94
343.239	106.2
343.459	52.89
343.679	46.5
343.899	51.69
344.119	61.03
344.339	25.05
344.559	82.68
344.779	44.56
344.999	39.61
345.219	40.02
345.439	70.1
345.658	39.4
345.878	69.32
346.098	76.62
346.318	32.64
346.537	42.65
346.757	40.54
346.977	42.94
347.196	87.89
347.416	84.25
347.636	55.72
347.855	51.74
348.075	65.53
348.294	59.33
348.514	94.2
348.733	62.27
348.953	3.72
349.172	61.09
349.392	22.18
349.611	8.46
349.83	83.66
350.05	51.85
350.269	19.59
350.488	37.79
350.707	6.08
350.927	92.03
351.146	76.48
351.365	49.95
351.584	50.08
351.803	42.68
352.023	36.76
352.242	50.63
352.461	30.58
352.68	50.79
352.899	69.81
353.118	33.45
353.337	60.45
353.556	59.94
353.775	14.15
353.993	38.19
354.212	59.42
354.431	15.7
354.65	113.93
354.869	57.54
355.088	53
355.306	59.86
355.525	58.08
355.744	83.01
355.962	64.9
356.181	67.4
356.4	30.03
356.618	84.27
356.837	28.43
357.055	69.64
357.274	44.76
357.492	65.4
357.711	73.01
357.929	32.6
358.148	65.11
358.366	13.7
358.585	44.16
358.803	41.1
359.021	86.95
359.24	59.98
359.458	55.69
359.676	42.08
359.894	70.04
360.113	50.26
360.331	35.36
360.549	57.4
360.767	45.2
360.985	44.68
361.203	45.97
361.421	29.11
361.639	34.94
361.857	54.58
362.075	9.86
362.293	66.68
362.511	19.66
362.729	71.8
362.947	80.18
363.165	36.87
363.383	33.4
363.601	39.65
363.819	38.07
364.036	79.67
364.254	47
364.472	61.67
364.689	45.78
364.907	65.94
365.125	47.49
365.342	48.17
365.56	57.16
365.778	89.67
365.995	48.28
366.213	41.72
366.43	31.72
366.648	36.36
366.865	58.19
367.083	22.19
367.3	29.09
367.517	64.04
367.735	33.02
367.952	47.76
368.17	70.83
368.387	44.85
368.604	35.32
368.821	65.82
369.039	39.25
369.256	78.21
369.473	45.22
369.69	46.12
369.907	80.33
370.124	84.17
370.341	20.17
370.558	55.75
370.776	49.96
370.993	36.54
371.21	131.58
371.426	34.48
371.643	55.61
371.86	52.33
372.077	76.65
372.294	40.66
372.511	67.24
372.728	49.17
372.945	33.9
373.161	60.71
373.378	65.25
373.595	58.39
373.811	36.42
374.028	48.51
374.245	75.67
374.461	66.83
374.678	70.74
374.895	48.68
375.111	73.26
375.328	44.48
375.544	73.63
375.761	81.53
375.977	33.07
376.194	46.81
376.41	67.35
376.626	90.95
376.843	33.52
377.059	56.39
377.275	33.8
377.492	41.33
377.708	23.07
377.924	32.41
378.14	52.72
378.357	21.7
378.573	77.42
378.789	41.22
379.005	57.35
379.221	45.61
379.437	63.98
379.653	85.24
379.869	55.02
380.085	61.71
380.301	82.94
380.517	52.07
380.733	49.14
380.949	75.29
381.165	56.38
381.381	71.33
381.597	54.5
381.813	53.73
382.028	66.43
382.244	52.51
382.46	72.1
382.676	60.39
382.891	56.75
383.107	58.19
383.323	74.21
383.538	66.74
383.754	63.15
383.969	67.76
384.185	68.52
384.4	73.68
384.616	57.31
384.831	56.29
385.047	58.53
385.262	71.45
385.478	68.02
385.693	51.85
385.909	53.91
386.124	81.71
386.339	60.39
386.554	53.36
386.77	40.94
386.985	46.63
387.2	91.97
387.415	79.94
387.631	44.05
387.846	50.41
388.061	81.24
388.276	75.17
388.491	72.72
388.706	68.62
388.921	59.65
389.136	69.45
389.351	55.31
389.566	69.41
389.781	82.13
389.996	57.17
390.211	77.47
390.426	77.34
390.641	71.44
390.855	54.54
391.07	70.49
391.285	69.01
391.5	67.5
391.714	61.49
391.929	63.85
392.144	70.53
392.358	72.89
392.573	70.98
392.788	70.4
393.002	61.82
393.217	86.12
393.431	70.75
393.646	65.91
393.86	67.63
394.075	89.84
394.289	75.64
394.504	74.64
394.718	82.5
394.933	67.15
395.147	85.92
395.361	74.96
395.576	92.44
395.79	77.72
396.004	90.42
396.218	82.58
396.432	74.59
396.647	74.36
396.861	77.68
397.075	82.72
397.289	82.14
397.503	81.51
397.717	84.13
397.931	87.63
398.145	81.18
398.359	80.82
398.573	83.16
398.787	84.28
399.001	87.05
399.215	83.05
399.429	93.18
399.643	85.49
399.857	93.09
400.07	80.81
400.284	83.05
400.498	84.81
400.712	93.47
400.925	86.72
401.139	87.89
401.353	86.74
401.566	89.47
401.78	85.42
401.994	89.93
402.207	86.37
402.421	89.22
402.634	83.76
402.848	87.79
403.061	85.01
403.275	88.68
403.488	95.22
403.702	87.15
403.915	90.9
404.128	90.36
404.342	86.28
404.555	88.73
404.768	92.79
404.982	92.88
405.195	86.4
405.408	88.12
405.621	92.4
405.835	93.86
406.048	94.74
406.261	95.81
406.474	92.82
406.687	94.71
406.9	94.1
407.113	86.07
407.326	88.57
407.539	92.04
407.752	91.53
407.965	89.08
408.178	92.01
408.391	91.12
408.604	90.32
408.817	92.47
409.029	91.97
409.242	88.38
409.455	92.83
409.668	90.77
409.881	87.84
410.093	90.57
410.306	87.91
410.519	88.22
410.731	87.33
410.944	86.81
411.157	87.59
411.369	85.77
411.582	91.34
411.794	86.47
412.007	82.39
412.219	84.7
412.432	85.36
412.644	83.66
412.857	82.18
413.069	83.08
413.281	81.98
413.494	80.42
413.706	81.71
413.918	80.03
414.131	82.38
414.343	81.35
414.555	79.73
414.767	81.45
414.979	78.8
415.192	77.78
415.404	75.94
415.616	75.05
415.828	74.08
416.04	75.33
416.252	71.29
416.464	70.74
416.676	70.97
416.888	69
417.1	70.41
417.312	68.32
417.524	67.29
417.736	67.76
417.948	67.69
418.159	66.05
418.371	65.61
418.583	64.76
418.795	63.33
419.007	61.88
419.218	60.66
419.43	60.95
419.642	60.49
419.853	60.84
420.065	60.65
420.276	59.02
420.488	58.48
420.7	54.93
420.911	56.4
421.123	54.3
421.334	52.92
421.546	51.85
421.757	51.77
421.969	50.86
422.18	49.25
422.391	51.16
422.603	49
422.814	48.71
423.025	47.9
423.237	47.12
423.448	46.51
423.659	47.38
423.87	45.78
424.082	43.63
424.293	44
424.504	42.22
424.715	42.69
424.926	42.3
425.137	40.62
425.348	40.65
425.559	40.26
425.77	39.44
425.981	38.76
426.192	37.77
426.403	39.11
426.614	37.75
426.825	36.54
427.036	36.3
427.247	35.51
427.458	34.6
427.668	36.05
427.879	32.43
428.09	34.67
428.301	34.56
428.511	33.29
428.722	32.06
428.933	31.48
429.143	30.7
429.354	31.2
429.565	31.97
429.775	29.88
429.986	31.16
430.196	29.51
430.407	27.85
430.617	27.86
430.828	28.49
431.038	29.07
431.249	27.02
431.459	27.58
431.669	27.63
431.88	26.03
432.09	25.91
432.3	26.48
432.511	25.62
432.721	24.16
432.931	24.45
433.141	25.18
433.351	25.38
433.562	23.19
433.772	24.05
433.982	23.29
434.192	22.48
434.402	23.55
434.612	22.49
434.822	21.9
435.032	22.72
435.242	21.13
435.452	20.67
435.662	21.71
435.872	20.46
436.082	19.96
436.292	20.36
436.502	21.99
436.711	19.2
436.921	19.91
437.131	19.88
437.341	20.15
437.551	18.38
437.76	18.93
437.97	18.88
438.18	19.2
438.389	18.45
438.599	19.07
438.808	18.03
439.018	18.68
439.228	17.83
439.437	17.33
439.647	17.05
439.856	17.87
440.066	17.92
440.275	18.08
440.484	17.17
440.694	16.25
440.903	16.63
441.113	16.89
441.322	15.69
441.531	16.61
441.741	17.71
441.95	16.06
442.159	16.06
442.368	16.84
442.577	16.19
442.787	14.78
442.996	14.88
443.205	16.16
443.414	14.01
443.623	14.51
443.832	15.29
444.041	14.78
444.25	15.99
444.459	14.25
444.668	13.2
444.877	14.05
445.086	14.29
445.295	14.97
445.504	14.45
445.713	15.19
445.922	14.37
446.13	12.99
446.339	13.58
446.548	15.3
446.757	14.43
446.965	13.79
447.174	13.04
447.383	13.97
447.591	14.11
447.8	13.38
448.009	12.46
448.217	12.78
448.426	13.31
448.634	12.47
448.843	12.8
449.051	13.1
449.26	13.35
449.468	13.09
449.677	13.12
449.885	12.62
450.093	13.8
450.302	13.78
450.51	13.3
450.719	14.03
450.927	12.18
451.135	12.19
451.343	12.33
451.552	12.65
451.76	13.19
451.968	11.62
452.176	12.67
452.384	12.35
452.592	12.86
452.8	12.07
453.009	12.45
453.217	11.88
453.425	12.38
453.633	13.15
453.841	10.41
454.049	11.78
454.257	12.38
454.464	13.53
454.672	12.32
454.88	10.79
455.088	10.87
455.296	12.09
455.504	10.01
455.711	11.72
455.919	11.88
456.127	11.42
456.335	11.93
456.542	10.55
456.75	11.78
456.958	13.03
457.165	11.32
457.373	11.53
457.581	11.39
457.788	12.13
457.996	11.6
458.203	10.89
458.411	10.76
458.618	12.35
458.826	12.86
459.033	10.59
459.24	11.18
459.448	10.93
459.655	11.64
459.863	11.4
460.07	10.55
460.277	11.73
460.484	11.56
460.692	11.76
460.899	12.02
461.106	12.52
461.313	11.55
461.52	10.41
461.728	10.54
461.935	10.66
462.142	11.7
462.349	10.65
462.556	12.79
462.763	10.96
462.97	11.91
463.177	11.92
463.384	11.62
463.591	12.02
463.798	11.02
464.005	11.45
464.212	11.5
464.418	10.19
464.625	11.55
464.832	11.08
465.039	11.36
465.246	11.14
465.452	11.27
465.659	10.71
465.866	11.37
466.072	11.72
466.279	10.48
466.486	10.58
466.692	11.54
466.899	11.73
467.105	11.34
467.312	10.92
467.519	11.48
467.725	10.51
467.931	11.15
468.138	12.07
468.344	11.48
468.551	11.14
468.757	12.04
468.964	10.56
469.17	11.08
469.376	12.39
469.583	11.89
469.789	11.55
469.995	12.54
470.201	11.14
470.408	12.16
470.614	10.82
470.82	12.2
471.026	12.74
471.232	11.7
471.438	10.44
471.644	12.18
471.85	12.21
472.056	12.4
472.262	10.94
472.468	12.74
472.674	11.94
472.88	12.93
473.086	11.63
473.292	11.6
473.498	12.57
473.704	12.44
473.91	12.91
474.116	12.34
474.321	12.86
474.527	12.59
474.733	12.95
474.939	11.99
475.144	13.23
475.35	12.65
475.556	12.2
475.761	12.68
475.967	12.81
476.173	13.46
476.378	12.25
476.584	12.81
476.789	13.13
476.995	12.53
477.2	13.42
477.406	12.64
477.611	13.43
477.817	13.23
478.022	12.99
478.227	12.5
478.433	13.07
478.638	13.83
478.843	12.9
479.049	13.44
479.254	13.7
479.459	12.94
479.664	14.01
479.87	14.46
480.075	13.4
480.28	14
480.485	14.09
480.69	13.74
480.895	13.74
481.1	14.58
481.306	14.4
481.511	14.9
481.716	13.78
481.921	14.39
482.126	14.28
482.33	14.83
482.535	14.57
482.74	15.93
482.945	15.03
483.15	14.8
483.355	15.5
483.56	15.28
483.765	15.74
483.969	15.51
484.174	15.97
484.379	15.69
484.583	16.31
484.788	16.47
484.993	16.96
485.197	16.7
485.402	16.78
485.607	17.42
485.811	16.71
486.016	16.88
486.22	17.03
486.425	17.91
486.629	17.71
486.834	17.93
487.038	18.21
487.243	17.84
487.447	18.38
487.652	18.31
487.856	18.78
488.06	18.83
488.265	18.88
488.469	19.24
488.673	19.64
488.877	19.67
489.082	20.14
489.286	20.14
489.49	20.32
489.694	20.64
489.898	20.55
490.102	21.54
490.307	21.4
490.511	21.59
490.715	21.56
490.919	22.32
491.123	22.05
491.327	22.31
491.531	23.03
491.735	23.3
491.939	23.28
492.143	23.96
492.346	23.75
492.55	23.92
492.754	24.38
492.958	24.97
493.162	25.56
493.366	25.47
493.569	25.48
493.773	26.67
493.977	26.68
494.18	26.96
494.384	26.98
494.588	27.03
494.791	27.88
494.995	28.74
495.199	28.64
495.402	28.76
495.606	29.44
495.809	30.21
496.013	30.23
496.216	31.1
496.42	31.69
496.623	31.74
496.827	32.58
497.03	32.99
497.233	33.22
497.437	34.1
497.64	34.38
497.843	34.97
498.047	35.82
498.25	36.16
498.453	36.26
498.656	37.6
498.86	37.82
499.063	38.37
499.266	39.65
499.469	39.47
499.672	40.16
499.875	41.73
500.078	41.92
500.281	42.72
500.484	43.59
500.687	44.26
500.89	44.72
501.093	45.77
501.296	46.93
501.499	47.15
501.702	48.32
501.905	48.93
502.108	49.67
502.311	50.43
502.514	50.85
502.716	52.81
502.919	53.07
503.122	54.39
503.325	55.08
503.527	55.61
503.73	57.1
503.933	58.36
504.135	59.33
504.338	60.13
504.541	61.29
504.743	62.39
504.946	63.31
505.148	64.47
505.351	64.83
505.553	66.61
505.756	67.28
505.958	68.3
506.161	69.4
506.363	71.09
506.565	71.53
506.768	73.01
506.97	73.52
507.172	75.14
507.375	76.44
507.577	77.68
507.779	78.02
507.982	79.82
508.184	80.07
508.386	81.42
508.588	82.34
508.79	82.99
508.993	85.29
509.195	85.54
509.397	86.2
509.599	87.18
509.801	88.36
510.003	88.76
510.205	89.63
510.407	89.9
510.609	90.37
510.811	92.13
511.013	93.3
511.215	93.45
511.417	93.62
511.618	93.99
511.82	94.61
512.022	94.88
512.224	95.16
512.426	95.06
512.627	96.25
512.829	96.15
513.031	96.22
513.233	95.62
513.434	95.79
513.636	95.67
513.838	95.57
514.039	94.91
514.241	95.13
514.442	94.31
514.644	94.51
514.845	93.7
515.047	93.17
515.248	92.23
515.45	91.44
515.651	90.76
515.853	89.51
516.054	89.43
516.256	88.56
516.457	87.24
516.658	87.33
516.86	85.91
517.061	85.31
517.262	84
517.463	83.55
517.665	82.61
517.866	80.6
518.067	79.8
518.268	79.03
518.469	78.26
518.67	76.71
518.872	76.17
519.073	74.53
519.274	73.87
519.475	72.62
519.676	72.12
519.877	70.45
520.078	69.64
520.279	69.38
520.48	67.76
520.681	66.93
520.881	65.31
521.082	64.22
521.283	63.62
521.484	62.71
521.685	61.56
521.886	60.69
522.086	59.37
522.287	58.52
522.488	58.08
522.689	56.43
522.889	56.06
523.09	55.3
523.291	53.53
523.491	53.08
523.692	52.57
523.892	51.56
524.093	50.44
524.294	50.12
524.494	48.93
524.695	48.46
524.895	47.4
525.096	46.66
525.296	46.14
525.496	44.96
525.697	44.22
525.897	43.93
526.098	43.38
526.298	42.85
526.498	42.27
526.699	41.42
526.899	40.59
527.099	39.82
527.299	39.57
527.499	38.74
527.7	38.2
527.9	37.86
528.1	36.84
528.3	36.19
528.5	35.99
528.7	35.13
528.9	34.98
529.1	34.3
529.3	33.74
529.5	33.27
529.7	32.6
529.9	32.12
530.1	31.73
530.3	31.35
530.5	31.01
530.7	30.66
530.9	29.71
531.1	29.94
531.3	29.01
531.499	28.99
531.699	28.67
531.899	28.07
532.099	28.01
532.298	27.52
532.498	27.12
532.698	26.69
532.897	26.27
533.097	25.9
533.297	25.56
533.496	25.41
533.696	24.96
533.895	24.93
534.095	24.32
534.294	24.23
534.494	23.97
534.693	23.55
534.893	23.41
535.092	23.13
535.292	22.84
535.491	22.47
535.69	22.17
535.89	22.09
536.089	21.6
536.288	21.6
536.488	21.34
536.687	20.96
536.886	20.81
537.085	20.56
537.285	20.32
537.484	20.07
537.683	20.01
537.882	19.89
538.081	19.67
538.28	19.52
538.479	19.21
538.678	18.91
538.877	19.05
539.076	18.53
539.275	18.31
539.474	18.22
539.673	17.99
539.872	17.89
540.071	17.7
540.27	17.72
540.469	17.21
540.668	17.04
540.867	17.22
541.065	17.03
541.264	16.69
541.463	16.47
541.662	16.45
541.861	16.22
542.059	16.01
542.258	16.21
542.457	15.93
542.655	15.96
542.854	15.64
543.052	15.57
543.251	15.44
543.45	15.46
543.648	15.04
543.847	15.03
544.045	14.92
544.244	14.62
544.442	14.71
544.641	14.57
544.839	14.49
545.037	14.48
545.236	14.35
545.434	14.2
545.632	13.99
545.831	14.03
546.029	13.89
546.227	13.69
546.426	13.78
546.624	13.66
546.822	13.55
547.02	13.43
547.218	13.44
547.417	13.12
547.615	13.1
547.813	12.93
548.011	12.99
548.209	12.73
548.407	12.94
548.605	12.56
548.803	12.64
549.001	12.59
549.199	12.52
549.397	12.48
549.595	12.21
549.793	12.19
549.991	12.18
550.189	12.1
550.387	11.97
550.584	11.8
550.782	11.91
550.98	11.73
551.178	11.71
551.376	11.59
551.573	11.5
551.771	11.4
551.969	11.3
552.166	11.14
552.364	11.32
552.562	11.3
552.759	11.29
552.957	11.11
553.154	11.15
553.352	10.93
553.55	11.03
553.747	11.02
553.945	10.87
554.142	10.73
554.339	10.77
554.537	10.79
554.734	10.68
554.932	10.71
555.129	10.56
555.326	10.67
555.524	10.61
555.721	10.42
555.918	10.41
556.116	10.46
556.313	10.32
556.51	10.14
556.707	10.14
556.904	10.08
557.102	10.3
557.299	10.34
557.496	10.19
557.693	10.04
557.89	9.83
558.087	9.91
558.284	9.86
558.481	9.73
558.678	9.76
558.875	9.67
559.072	9.67
559.269	9.57
559.466	9.7
559.663	9.59
559.86	9.53
560.057	9.51
560.254	9.53
560.45	9.49
560.647	9.43
560.844	9.34
561.041	9.42
561.237	9.28
561.434	9.2
561.631	9.21
561.828	9.26
562.024	9.23
562.221	9.25
562.418	9.12
562.614	9.12
562.811	9.06
563.007	9.09
563.204	9.21
563.4	9.24
563.597	9.02
563.793	9.13
563.99	9.02
564.186	8.9
564.383	8.93
564.579	9.05
564.775	8.98
564.972	8.87
565.168	9.01
565.365	8.88
565.561	8.8
565.757	8.74
565.953	8.8
566.15	8.79
566.346	8.8
566.542	8.71
566.738	8.7
566.934	8.67
567.131	8.74
567.327	8.59
567.523	8.69
567.719	8.6
567.915	8.62
568.111	8.66
568.307	8.51
568.503	8.49
568.699	8.46
568.895	8.45
569.091	8.43
569.287	8.48
569.483	8.62
569.679	8.52
569.875	8.51
570.07	8.61
570.266	8.63
570.462	8.48
570.658	8.44
570.854	8.47
571.049	8.46
571.245	8.48
571.441	8.43
571.636	8.45
571.832	8.5
572.028	8.58
572.223	8.48
572.419	8.42
572.615	8.35
572.81	8.33
573.006	8.42
573.201	8.41
573.397	8.36
573.592	8.26
573.788	8.35
573.983	8.32
574.179	8.32
574.374	8.3
574.569	8.38
574.765	8.35
574.96	8.43
575.156	8.4
575.351	8.34
575.546	8.24
575.741	8.1
575.937	8.21
576.132	8.19
576.327	8.15
576.522	8.21
576.718	8.19
576.913	8.18
577.108	8.18
577.303	8.21
577.498	8.24
577.693	8.17
577.888	8.07
578.083	8.14
578.278	8.17
578.473	8.29
578.668	8.19
578.863	8.13
579.058	8.14
579.253	8.22
579.448	8.26
579.643	8.17
579.838	8.24
580.033	8.17
580.227	8.31
580.422	8.24
580.617	8.16
580.812	8.13
581.006	8.32
581.201	8.32
581.396	8.29
581.591	8.28
581.785	8.27
581.98	8.24
582.175	8.23
582.369	8.16
582.564	8.2
582.758	8.29
582.953	8.18
583.147	8.22
583.342	8.22
583.536	8.35
583.731	8.16
583.925	8.2
584.12	8.3
584.314	8.28
584.509	8.24
584.703	8.24
584.897	8.26
585.092	8.37
585.286	8.23
585.48	8.26
585.674	8.3
585.869	8.3
586.063	8.34
586.257	8.27
586.451	8.39
586.646	8.37
586.84	8.4
587.034	8.44
587.228	8.42
587.422	8.41
587.616	8.5
587.81	8.5
588.004	8.38
588.198	8.46
588.392	8.41
588.586	8.36
588.78	8.48
588.974	8.44
589.168	8.34
589.362	8.51
589.556	8.55
589.75	8.59
589.944	8.61
590.137	8.56
590.331	8.51
590.525	8.68
590.719	8.69
590.913	8.66
591.106	8.58
591.3	8.62
591.494	8.67
591.687	8.72
591.881	8.73
592.075	8.66
592.268	8.7
592.462	8.67
592.655	8.74
592.849	8.72
593.043	8.78
593.236	8.82
593.43	8.73
593.623	8.81
593.817	8.86
594.01	8.73
594.203	8.79
594.397	8.81
594.59	8.84
594.784	8.86
594.977	8.91
595.17	8.88
595.364	8.93
595.557	8.9
595.75	8.93
595.943	9
596.137	8.96
596.33	9.05
596.523	9.16
596.716	9.02
596.909	9.11
597.102	9.15
597.296	9.19
597.489	9.26
597.682	9.23
597.875	9.18
598.068	9.22
598.261	9.22
598.454	9.21
598.647	9.29
598.84	9.43
599.033	9.3
599.226	9.41
599.419	9.41
599.611	9.55
599.804	9.35
599.997	9.45
600.19	9.6
600.383	9.53
600.576	9.6
600.768	9.49
600.961	9.63
601.154	9.6
601.347	9.79
601.539	9.78
601.732	9.7
601.925	9.74
602.117	9.74
602.31	9.87
602.502	9.91
602.695	9.86
602.888	9.9
603.08	9.88
603.273	9.93
603.465	10.05
603.658	10.01
603.85	10.01
604.043	10.03
604.235	10.15
604.427	10.16
604.62	10.01
604.812	10.14
605.004	10.26
605.197	10.22
605.389	10.21
605.581	10.33
605.774	10.33
605.966	10.38
606.158	10.52
606.35	10.46
606.543	10.4
606.735	10.47
606.927	10.55
607.119	10.47
607.311	10.6
607.503	10.63
607.695	10.68
607.887	10.7
608.079	10.67
608.271	10.8
608.463	10.76
608.655	10.85
608.847	10.94
609.039	10.89
609.231	10.99
609.423	10.98
609.615	10.99
609.807	11.09
609.999	11.13
610.191	11.17
610.382	11.22
610.574	11.34
610.766	11.28
610.958	11.23
611.15	11.32
611.341	11.31
611.533	11.36
611.725	11.44
611.916	11.52
612.108	11.47
612.3	11.64
612.491	11.71
612.683	11.84
612.874	11.74
613.066	11.82
613.257	11.8
613.449	11.84
613.64	11.91
613.832	12.07
614.023	12.08
614.215	12.2
614.406	12.16
614.598	12.16
614.789	12.15
614.98	12.17
615.172	12.43
615.363	12.35
615.554	12.36
615.746	12.36
615.937	12.41
616.128	12.65
616.319	12.64
616.511	12.6
616.702	12.65
616.893	12.75
617.084	12.76
617.275	12.77
617.466	12.97
617.658	12.98
617.849	13.03
618.04	13.11
618.231	13.08
618.422	13.16
618.613	13.21
618.804	13.41
618.995	13.41
619.186	13.67
619.377	13.48
619.568	13.72
619.758	13.69
619.949	13.79
620.14	13.8
620.331	13.95
620.522	14.18
620.713	14.07
620.903	14.07
621.094	14.29
621.285	14.23
621.476	14.31
621.666	14.32
621.857	14.45
622.048	14.62
622.238	14.64
622.429	14.67
622.62	14.72
622.81	14.84
623.001	14.83
623.191	14.85
623.382	14.83
623.572	14.93
623.763	14.91
623.953	15.17
624.144	15.26
624.334	15.26
624.525	15.4
624.715	15.45
624.905	15.6
625.096	15.67
625.286	15.64
625.477	15.77
625.667	15.82
625.857	15.87
626.047	15.96
626.238	16.02
626.428	16.16
626.618	16.07
626.808	16.26
626.999	16.39
627.189	16.54
627.379	16.56
627.569	16.67
627.759	16.69
627.949	16.77
628.139	16.93
628.329	16.87
628.519	17.19
628.709	17.26
628.899	17.37
629.089	17.38
629.279	17.48
629.469	17.7
629.659	17.65
629.849	17.82
630.039	17.93
630.229	18.08
630.419	17.82
630.609	18.03
630.798	18.13
630.988	18.19
631.178	18.34
631.368	18.46
631.557	18.62
631.747	18.66
631.937	18.75
632.127	18.95
632.316	18.85
632.506	19.16
632.696	19.27
632.885	19.25
633.075	19.39
633.264	19.46
633.454	19.56
633.643	19.63
633.833	19.86
634.022	19.91
634.212	19.92
634.401	20.05
634.591	20.25
634.78	20.42
634.97	20.42
635.159	20.59
635.348	20.59
635.538	20.81
635.727	20.69
635.916	21.03
636.106	21.05
636.295	21.22
636.484	21.37
636.674	21.56
636.863	21.48
637.052	21.58
637.241	21.7
637.43	22.05
637.619	22
637.809	22.21
637.998	22.21
638.187	22.46
638.376	22.5
638.565	22.67
638.754	22.82
638.943	22.78
639.132	22.96
639.321	23.19
639.51	23.34
639.699	23.4
639.888	23.7
640.077	23.9
640.266	24.03
640.455	24.24
640.643	24.2
640.832	24.36
641.021	24.51
641.21	24.68
641.399	24.75
641.587	24.89
641.776	24.91
641.965	25.21
642.154	25.31
642.342	25.38
642.531	25.6
642.72	25.77
642.908	25.92
643.097	25.97
643.286	26.31
643.474	26.59
643.663	26.65
643.851	26.83
644.04	26.93
644.228	27.12
644.417	27.23
644.605	27.44
644.794	27.6
644.982	27.78
645.171	27.82
645.359	28.04
645.547	28.2
645.736	28.41
645.924	28.47
646.112	28.38
646.301	28.77
646.489	28.88
646.677	29.02
646.866	29.35
647.054	29.45
647.242	29.71
647.43	29.68
647.618	29.99
647.807	30.31
647.995	30.38
648.183	30.65
648.371	30.95
648.559	30.92
648.747	31.25
648.935	31.4
649.123	31.67
649.311	31.66
649.499	32.06
649.687	32.19
649.875	32.33
650.063	32.69
650.251	32.96
650.439	33.15
650.627	33.26
650.815	33.3
651.003	33.7
651.191	34
651.378	34.06
651.566	34.43
651.754	34.55
651.942	34.77
652.13	35
652.317	35.02
652.505	35.34
652.693	35.44
652.88	35.63
653.068	35.66
653.256	36.1
653.443	36.32
653.631	36.43
653.819	36.84
654.006	37.18
654.194	37.44
654.381	37.61
654.569	37.87
654.756	38
654.944	38.19
655.131	38.38
655.319	38.59
655.506	38.92
655.693	38.94
655.881	39.34
656.068	39.45
656.256	39.57
656.443	39.99
656.63	40.36
656.818	40.6
657.005	41.07
657.192	41.04
657.379	41.51
657.567	41.52
657.754	41.92
657.941	42.3
658.128	42.73
658.315	42.78
658.502	43.18
658.69	43.43
658.877	43.62
659.064	44.05
659.251	44.4
659.438	44.59
659.625	44.66
659.812	45
659.999	45.42
660.186	45.84
660.373	46.13
660.56	46.17
660.747	46.1
660.934	46.51
661.121	46.88
661.308	47.01
661.494	47.43
661.681	47.99
661.868	48.16
662.055	48.17
662.242	48.73
662.428	49.03
662.615	49.46
662.802	49.59
662.989	49.74
663.175	50.02
663.362	50.41
663.549	50.53
663.735	50.91
663.922	51.33
664.109	51.66
664.295	51.98
664.482	52.2
664.668	52.4
664.855	52.79
665.041	52.95
665.228	52.83
665.414	53.29
665.601	53.72
665.787	53.87
665.974	54.25
666.16	54.81
666.347	55
666.533	55.19
666.719	55.55
666.906	55.83
667.092	56.28
667.278	56.7
667.465	57.17
667.651	57.18
667.837	57.56
668.023	57.86
668.21	58.02
668.396	58.28
668.582	58.61
668.768	59.11
668.954	59.31
669.14	59.61
669.327	59.66
669.513	60.19
669.699	60.07
669.885	60.67
670.071	61.13
670.257	61.42
670.443	61.6
670.629	62.15
670.815	62.67
671.001	63.14
671.187	63.33
671.373	63.52
671.559	63.83
671.744	64.1
671.93	64.86
672.116	64.82
672.302	64.81
672.488	65.27
672.674	65.71
672.859	65.94
673.045	66.38
673.231	66.93
673.417	67.32
673.602	67.69
673.788	68.03
673.974	68.13
674.159	68.73
674.345	68.83
674.531	69.16
674.716	69.5
674.902	70.15
675.087	70.04
675.273	70.3
675.459	70.67
675.644	70.95
675.83	71
676.015	71.56
676.2	71.96
676.386	72.38
676.571	72.43
676.757	72.92
676.942	73.17
677.128	73.61
677.313	73.94
677.498	74.5
677.684	74.92
677.869	75
678.054	75.2
678.24	75.48
678.425	75.58
678.61	76.1
678.795	76.33
678.98	76.8
679.166	77.5
679.351	77.89
679.536	77.88
679.721	78.44
679.906	78.61
680.091	79.39
680.276	79.64
680.461	80.11
680.647	80.34
680.832	80.45
681.017	80.7
681.202	81.24
681.387	81.2
681.572	81.58
681.756	81.56
681.941	81.97
682.126	82.32
682.311	82.33
682.496	82.88
682.681	83.19
682.866	83.66
683.051	83.98
683.235	83.68
683.42	83.97
683.605	84.36
683.79	84.54
683.974	84.85
684.159	85.21
684.344	85.78
684.529	85.86
684.713	86.31
684.898	86.68
685.083	86.75
685.267	87.06
685.452	87.45
685.636	87.83
685.821	87.58
686.005	87.67
686.19	88.03
686.375	87.84
686.559	88.22
686.744	88.89
686.928	89.48
687.112	89.82
687.297	89.73
687.481	89.87
687.666	90.01
687.85	90.09
688.034	90.22
688.219	90.46
688.403	90.88
688.587	91.2
688.772	91.38
688.956	91.79
689.14	92.37
689.324	92.33
689.509	92.45
689.693	92.63
689.877	92.71
690.061	93
690.245	93.44
690.43	93.76
690.614	93.77
690.798	94.51
690.982	94.77
691.166	94.73
691.35	94.72
691.534	94.99
691.718	95.3
691.902	95.08
692.086	95.19
692.27	95.66
692.454	95.73
692.638	96.42
692.822	96.06
693.006	95.87
693.19	96.09
693.373	96.05
693.557	96.53
693.741	96.88
693.925	96.95
694.109	97.66
694.293	97.5
694.476	97.67
694.66	97.54
694.844	98
695.027	98.29
695.211	98.19
695.395	98.8
695.578	98.38
695.762	98.66
695.946	99.1
696.129	99.49
696.313	99.4
696.497	99.31
696.68	99.98
696.864	99.58
697.047	99.97
697.231	100.2
697.414	100.26
697.598	100.04
697.781	100.49
697.965	100.3
698.148	100.71
698.331	101.18
698.515	101.48
698.698	101.49
698.881	101.75
699.065	101.5
699.248	101.41
699.431	101.42
699.615	101.17
699.798	101.54
699.981	101.72
700.165	102
700.348	101.87
700.531	101.34
700.714	101.73
700.897	101.37
701.08	101.65
701.264	101.48
701.447	101.56
701.63	102.04
701.813	101.97
701.996	102.18
702.179	102.09
702.362	102.09
702.545	102.39
702.728	102.59
702.911	102.48
703.094	102.8
703.277	102.58
703.46	102.57
703.643	102.47
703.826	102.92
704.009	102.96
704.191	103.02
704.374	103.33
704.557	103.18
704.74	103.14
704.923	103.08
705.106	102.73
705.288	102.83
705.471	103.03
705.654	103.31
705.837	103.68
706.019	103.7
706.202	103.78
706.385	104.49
706.567	104.08
706.75	104.38
706.932	104.42
707.115	104.22
707.298	104.01
707.48	104.08
707.663	103.91
707.845	103.89
708.028	104.19
708.21	103.94
708.393	104.23
708.575	104.11
708.758	104.16
708.94	103.78
709.123	103.89
709.305	103.75
709.487	103.66
709.67	103.72
709.852	104
710.034	104.03
710.217	103.74
710.399	103.76
710.581	103.89
710.764	103.95
710.946	104.03
711.128	103.68
711.31	103.63
711.492	104.07
711.675	103.6
711.857	103.91
712.039	103.89
712.221	103.88
712.403	104.37
712.585	103.67
712.767	103.87
712.949	104.07
713.131	104.09
713.314	104.48
713.496	103.93
713.678	104.16
713.86	103.38
714.041	103.07
714.223	102.56
714.405	102.39
714.587	102.84
714.769	103.22
714.951	102.91
715.133	103.49
715.315	103.4
715.497	102.68
715.678	103.15
715.86	102.8
716.042	102.83
716.224	102.87
716.406	102.68
716.587	102.75
716.769	102.89
716.951	102.86
717.132	102.59
717.314	102.8
717.496	102.79
717.677	103.35
717.859	103.35
718.041	103.34
718.222	103.75
718.404	103.2
718.585	103.59
718.767	103.7
718.948	103.39
719.13	103.32
719.311	103.43
719.493	102.54
719.674	103.08
719.856	102.74
720.037	102.89
720.219	103.23
720.4	103.07
720.581	103.21
720.763	103.18
720.944	102.69
721.125	102.81
721.307	102.61
721.488	102.57
721.669	103.03
721.85	102.45
722.032	102.08
722.213	102.55
722.394	102.28
722.575	102.42
722.756	103.05
722.938	102.53
723.119	102.56
723.3	103.15
723.481	102.55
723.662	102.88
723.843	102.13
724.024	102.65
724.205	102.46
724.386	102.17
724.567	102.29
724.748	102.51
724.929	102.22
725.11	102.53
725.291	102.49
725.472	102.09
725.653	101.57
725.834	101.52
726.015	101.79
726.196	101.26
726.377	101.18
726.557	101.16
726.738	101.2
726.919	101.42
727.1	101.03
727.281	100.34
727.461	100.43
727.642	100.18
727.823	99.95
728.004	100.12
728.184	100.13
728.365	100.26
728.546	100.31
728.726	100.2
728.907	100.79
729.087	100.51
729.268	100.6
729.449	100.65
729.629	100.9
729.81	100.91
729.99	101.46
730.171	101.46
730.351	101.76
730.532	101.36
730.712	101.71
730.893	101.04
731.073	101.1
731.253	100.35
731.434	101.03
731.614	100.87
731.795	100.88
731.975	100.55
732.155	100.81
732.336	100.59
732.516	100.34
732.696	100.38
732.876	100.22
733.057	100.88
733.237	100.32
733.417	100.46
733.597	101.23
733.778	101.04
733.958	101.28
734.138	100.91
734.318	100.22
734.498	100.56
734.678	100.33
734.858	99.85
735.038	100.5
735.218	99.86
735.398	99.73
735.579	100.37
735.759	100.08
735.939	99.83
736.119	99.92
736.298	99.76
736.478	100.03
736.658	99.93
736.838	99.84
737.018	100.34
737.198	99.81
737.378	100.17
737.558	100.14
737.738	99.92
737.917	99.89
738.097	99.65
738.277	99.41
738.457	99.85
738.637	100.13
738.816	99.56
738.996	100.65
739.176	100.11
739.355	99.52
739.535	99.34
739.715	99.25
739.894	99.45
740.074	99.41
740.254	99.41
740.433	99.29
740.613	99.13
740.792	99.11
740.972	99.01
741.151	99.21
741.331	99.15
741.51	99.47
741.69	98.96
741.869	98.82
742.049	98.45
742.228	98.07
742.408	98.84
742.587	99.07
742.766	99.1
742.946	98.85
743.125	99.11
743.305	98.86
743.484	99.04
743.663	98.56
743.842	99.52
744.022	99.07
744.201	98.68
744.38	98.84
744.56	99
744.739	99.36
744.918	99.04
745.097	98.87
745.276	99.15
745.455	99
745.635	99.05
745.814	98.86
745.993	98.83
746.172	98.2
746.351	98.12
746.53	98.25
746.709	97.9
746.888	98.12
747.067	97.95
747.246	98.09
747.425	98.35
747.604	99.02
747.783	98.39
747.962	98.95
748.141	99.18
748.32	98.85
748.499	99.02
748.677	99.03
748.856	99.02
749.035	98.34
749.214	98.63
749.393	98.41
749.572	97.94
749.75	98.11
749.929	97.71
750.108	97.97
750.287	98.58
750.465	99.34
750.644	98.62
750.823	98.91
751.001	99.36
751.18	99.32
751.359	98.84
751.537	99.19
751.716	98.44
751.894	98.56
752.073	98.51
752.251	98.62
752.43	98.36
752.609	98.31
752.787	98.82
752.966	98.39
753.144	98.56
753.322	98.28
753.501	98.26
753.679	97.96
753.858	98.53
754.036	98.67
754.215	99.32
754.393	99
754.571	98.72
754.75	99.28
754.928	99.25
755.106	99.13
755.284	99.57
755.463	99.19
755.641	99.34
755.819	99.39
755.997	99.13
756.176	99.25
756.354	99.34
756.532	98.97
756.71	99.56
756.888	99.18
757.066	99.36
757.245	99.03
757.423	99.1
757.601	99.12
757.779	99.49
757.957	99.08
758.135	99.13
758.313	99.31
758.491	98.9
758.669	99.43
758.847	98.86
759.025	99.02
759.203	99.24
759.381	98.69
759.559	99.44
759.737	98.92
759.915	99.44
760.092	99.27
760.27	99.47
760.448	100.06
760.626	99.58
760.804	99.01
760.981	98.85
761.159	99.12
761.337	99.08
761.515	98.74
761.692	99.51
761.87	99.11
762.048	99.07
762.226	99.4
762.403	99.45
762.581	99.37
762.759	98.7
762.936	98.57
763.114	99.58
763.291	99.51
763.469	99.56
763.647	100
763.824	100.28
764.002	99.87
764.179	100.38
764.357	100.33
764.534	100.43
764.712	99.77
764.889	99.92
765.066	99.23
765.244	99.59
765.421	99.31
765.599	99.29
765.776	99.34
765.953	99.76
766.131	99.68
766.308	99.75
766.485	99.58
766.663	99.9
766.84	99.01
767.017	99.36
767.194	100.21
767.372	99.26
767.549	100.08
767.726	99.6
767.903	99.91
768.081	99.3
768.258	98.99
768.435	99.26
768.612	99.92
768.789	99.75
768.966	99.02
769.143	99.66
769.32	99.32
769.497	100.09
769.674	99.44
769.851	99.08
770.028	99.59
770.205	99.27
770.382	98.9
770.559	99.25
770.736	99.3
770.913	99.49
771.09	99.49
771.267	99.17
771.444	98.93
771.621	99.31
771.798	99.98
771.975	99.81
772.151	100.54
772.328	99.82
772.505	100.01
772.682	100.01
772.859	99.09
773.035	99.91
773.212	100.19
773.389	99.48
773.565	99.31
773.742	99.36
773.919	99.44
774.096	100.3
774.272	99.84
774.449	99.49
774.625	99.17
774.802	99.62
774.979	99.56
775.155	99.41
775.332	99.62
775.508	100.07
775.685	99.98
775.861	99.71
776.038	100.46
776.214	100.21
776.391	99.86
776.567	100.55
776.744	99.86
776.92	99.11
777.096	99.62
777.273	99.2
777.449	99.93
777.626	100.05
777.802	99.82
777.978	99.36
778.155	100.17
778.331	100.12
778.507	100.02
778.683	100.38
778.86	100.98
779.036	100.56
779.212	100.61
779.388	100.07
779.565	99.36
779.741	100.58
779.917	99.91
780.093	101.12
780.269	100.21
780.445	100.85
780.621	101.42
780.797	101.13
780.974	100.54
781.15	100.37
781.326	100.42
781.502	100.7
781.678	99.98
781.854	100.5
782.03	99.81
782.206	99.78
782.382	100.26
782.558	100.32
782.733	100.19
782.909	99.29
783.085	100.61
783.261	100.02
783.437	99.72
783.613	100.08
783.789	99.85
783.965	99.39
784.14	100.31
784.316	100.29
784.492	99.65
784.668	99.63
784.843	99.7
785.019	100.24
785.195	99.73
785.371	99.56
785.546	100.25
785.722	99.91
785.898	98.81
786.073	98.9
786.249	99.32
786.424	98.53
786.6	99.34
786.776	99.51
786.951	99.75
787.127	101.13
787.302	100.21
787.478	100.18
787.653	99.87
787.829	100.51
788.004	100.21
788.18	100.13
788.355	100.36
788.531	99.76
788.706	99.97
788.881	98.58
789.057	98.9
789.232	99.26
789.408	99.84
789.583	99.19
789.758	98.92
789.934	100.65
790.109	99.81
790.284	101.06
790.459	99.84
790.635	99.42
790.81	100.21
790.985	100.12
791.16	101.44
791.336	101.07
791.511	101.11
791.686	100.88
791.861	100.15
792.036	102.35
792.211	101.85
792.387	100.72
792.562	98.91
792.737	99.92
792.912	100.41
793.087	100.75
793.262	100.77
793.437	99.88
793.612	100.74
793.787	99.59
793.962	99.66
794.137	100.68
794.312	99.77
794.487	101.49
794.662	99.96
794.837	99.29
795.011	99.5
795.186	99.32
795.361	99.55
795.536	99.8
795.711	98.58
795.886	100.44
796.06	99.78
796.235	100.61
796.41	99.91
796.585	99.2
796.76	100.36
796.934	100
797.109	98.38
797.284	99.51
797.458	101
797.633	100.59
797.808	99.22
797.982	98.84
798.157	99.82
798.332	100.95
798.506	99.62
798.681	99.38
798.855	99.92
799.03	99.13
799.204	99.71
799.379	99.85
799.553	100.82
799.728	99.43
799.902	97.68
800.077	97.86
800.251	99.6
800.426	99.03
800.6	99.74
800.775	98.58
800.949	100.82
801.123	99.11
801.298	99.89
801.472	99.76
801.647	99.6
801.821	101.2
801.995	99.67
802.169	99.27
802.344	100.98
802.518	98.53
802.692	100.59
802.867	97.35
803.041	97.07
803.215	98.17
803.389	98.59
803.563	98.76
803.737	98.34
803.912	98.65
804.086	98.5
804.26	100.58
804.434	98.29
804.608	99.06
804.782	98.26
804.956	99.3
805.13	97.89
805.304	99.82
805.478	98.18
805.652	97.63
805.826	98.04
806	96.95
806.174	97.35
806.348	100.6
806.522	97.79
806.696	100.8
806.87	98.63
807.044	98.71
807.218	97.4
807.392	97.73
807.566	96.94
807.739	98.07
807.913	97.85
808.087	96.66
808.261	96.58
808.435	97.24
808.608	97.4
808.782	97.12
808.956	97.38
809.13	97.52
809.303	97.5
809.477	95.16
809.651	96.52
809.824	96.09
809.998	98.52
810.172	96.28
810.345	95.59
810.519	96.63
810.692	97.43
810.866	94.07
811.04	96.8
811.213	96.02
811.387	96.49
811.56	97.85
811.734	97.01
811.907	95.63
812.081	97.65
812.254	97.97
812.428	95.97
812.601	95.51
812.774	94.55
812.948	95.41
813.121	97.41
813.295	97.34
813.468	97.67
813.641	95.53
813.815	96.49
813.988	96.88
814.161	95.74
814.335	96.99
814.508	96.88
814.681	97.01
814.854	96.87
815.028	95.94
815.201	95.84
815.374	95.81
815.547	96.37
815.72	96
815.894	94.84
816.067	94.25
816.24	95.16
816.413	94.59
816.586	93.76
816.759	94.37
816.932	95.17
817.105	94.02
817.278	94.63
817.452	94.95
817.625	94.76
817.798	95.12
817.971	96.12
818.144	96.65
818.317	93.47
818.49	94.85
818.662	97.37
818.835	94.26
819.008	95.9
819.181	95.08
819.354	95.7
819.527	92.88
819.7	96.03
819.873	94.13
820.046	95.01
820.218	95.45
820.391	93.49
820.564	95.29
820.737	93.15
820.909	95.58
821.082	94.33
821.255	92.67
821.428	91.6
821.6	92.76
821.773	94.88
821.946	92.89
822.118	93.17
822.291	92.4
822.464	94.94
822.636	94.53
822.809	94.6
822.982	95.48
823.154	94.12
823.327	95.06
823.499	92.49
823.672	92.47
823.844	95.16
824.017	94.08
824.189	93.19
824.362	92.45
824.534	93.93
824.707	93.06
824.879	93.31
825.052	91.98
825.224	94.3
825.396	94.76
825.569	92.34
825.741	92.58
825.914	93.21
826.086	92.93
826.258	91.3
826.431	92.88
826.603	92.54
826.775	94.28
826.947	94.56
827.12	93.79
827.292	92.66
827.464	91.38
827.636	93.54
827.809	91.26
827.981	94.61
828.153	93.82
828.325	93.34
828.497	91.58
828.669	91.88
828.842	92.08
829.014	91.09
829.186	93.35
829.358	91.05
829.53	90.65
829.702	92.01
829.874	90.57
830.046	92
830.218	90.74
830.39	93.97
830.562	89.67
830.734	90.56
830.906	91.02
831.078	92.81
831.25	93.09
831.422	91.41
831.594	90.39
831.766	92.61
831.937	93.66
832.109	91.87
832.281	91.62
832.453	93.47
832.625	90.18
832.797	91.8
832.968	92.23
833.14	93.11
833.312	91.8
833.484	91.89
833.655	92.21
833.827	90.61
833.999	91.88
834.171	93.3
834.342	90.1
834.514	90.76
834.686	90.39
834.857	91.04
835.029	91.04
835.2	89.96
835.372	90.99
835.544	92.03
835.715	91.67
835.887	91.28
836.058	92.42
836.23	90.16
836.401	91.63
836.573	91.28
836.744	90.56
836.916	91.68
837.087	90.6
837.259	89.43
837.43	89.87
837.602	90.11
837.773	89.78
837.945	90.49
838.116	87.73
838.287	88.97
838.459	91.33
838.63	85.36
838.801	89.02
838.973	88.38
839.144	89.79
839.315	88.83
839.487	92.08
839.658	90.74
839.829	89.81
840	89.9
840.172	89.65
840.343	89
840.514	88.76
840.685	89.16
840.856	87.99
841.027	87.71
841.199	89.89
841.37	89.41
841.541	89.6
841.712	88.58
841.883	91.57
842.054	89.23
842.225	89.55
842.396	87.73
842.567	87.34
842.738	87.59
842.909	88.95
843.08	89.37
843.251	88.27
843.422	87.99
843.593	87.58
843.764	88.16
843.935	89.79
844.106	87.26
844.277	90.42
844.448	88.68
844.619	87.76
844.79	87.81
844.96	87.48
845.131	88.58
845.302	86.28
845.473	87.23
845.644	85.29
845.814	87.42
845.985	88.15
846.156	87.29
846.327	88.57
846.497	86.55
846.668	85.9
846.839	86.73
847.01	87.16
847.18	87.54
847.351	84.75
847.522	87.45
847.692	85.79
847.863	87.03
848.033	86.4
848.204	86.21
848.375	86.67
848.545	88.46
848.716	88.53
848.886	87.25
849.057	87.55
849.227	87.82
849.398	85.93
849.568	86.17
849.739	86.54
849.909	87.05
850.08	87.61
850.25	86.37
850.421	89.94
850.591	85.77
850.761	86.44
850.932	86.96
851.102	86.9
851.272	87.33
851.443	86.05
851.613	85.53
851.783	87.23
851.954	85.83
852.124	85.67
852.294	87.36
852.465	86.24
852.635	85.17
852.805	85.67
852.975	86.44
853.145	84.58
853.316	87.65
853.486	84.72
853.656	84.84
853.826	83
853.996	85.99
854.166	84.99
854.337	85.34
854.507	82.57
854.677	84.11
854.847	86.9
855.017	85.67
855.187	85.34
855.357	86.03
855.527	85.86
855.697	86.93
855.867	83.07
856.037	84.94
856.207	87
856.377	85.73
856.547	83.99
856.717	85.95
856.887	83.38
857.057	85.42
857.227	85.74
857.397	85.58
857.566	83.58
857.736	85.57
857.906	83.03
858.076	83.77
858.246	86.52
858.416	85.02
858.585	82.98
858.755	88.43
858.925	84.65
859.095	84.22
859.264	85.55
859.434	84.42
859.604	83.82
859.774	84.18
859.943	81.99
860.113	81.97
860.283	81.81
860.452	81.61
860.622	85.88
860.791	84.1
860.961	85.58
861.131	82.03
861.3	84.84
861.47	82.46
861.639	83.81
861.809	80.84
861.978	85.28
862.148	83.07
862.318	84.87
862.487	81.76
862.657	81.42
862.826	82.02
862.995	83.08
863.165	84.91
863.334	82.73
863.504	81.78
863.673	81.38
863.843	80.29
864.012	81.98
864.181	82.91
864.351	81.81
864.52	81.36
864.689	78.85
864.859	81.46
865.028	82.33
865.197	84.43
865.366	82.9
865.536	82.75
865.705	82.28
865.874	83.55
866.043	80.95
866.213	80.43
866.382	85.2
866.551	83.13
866.72	82.99
866.889	82.38
867.059	82.08
867.228	80.33
867.397	79.08
867.566	80.39
867.735	82.64
867.904	86.09
868.073	78.24
868.242	83.7
868.411	85.44
868.58	82.87
868.749	79.97
868.918	78.63
869.087	82.56
869.256	80.46
869.425	84.63
869.594	84.92
869.763	85.13
869.932	81.97
870.101	83.97
870.27	75.52
870.439	82.93
870.608	86.56
870.777	78.16
870.945	82.55
871.114	85.23
871.283	81.62
871.452	84.98
871.621	81.51
871.789	79.17
871.958	78.85
872.127	84.75
872.296	86.66
872.464	78.87
872.633	81.79
872.802	83.07
872.971	78.43
873.139	81.41
873.308	75.57
873.477	80.26
873.645	77.99
873.814	77.91
873.983	85.74
874.151	79.26
874.32	80.26
874.488	75.19
874.657	84.07
874.826	77.27
874.994	79.48
875.163	80.13
875.331	86.9
875.5	72.98
875.668	80.84
875.837	83.73
876.005	78.52
876.174	80.77
876.342	76.26
876.51	77.64
876.679	78.51
876.847	84.23
877.016	85.57
877.184	80.63
877.352	79.35
877.521	80.92
877.689	80.25
877.857	82.21
878.026	80.48
878.194	81.24
878.362	78.76
878.531	79.88
878.699	83.52
878.867	85.71
879.036	83.78
879.204	79.03
879.372	82.99
879.54	82.73
879.708	83.68
879.877	82.01
880.045	80.7
880.213	84.65
880.381	82.31
880.549	78.98
880.717	81.51
880.885	76.94
881.054	80.33
881.222	73.07
881.39	78.27
881.558	78.8
881.726	82.21
881.894	83.75
882.062	79.66
882.23	78.58
882.398	77.4
882.566	75.88
882.734	74.69
882.902	82.15
883.07	81.6
883.238	80.27
883.406	81.41
883.574	75.68
883.741	79.96
883.909	76.46
884.077	83.44
884.245	84.67
884.413	80.08
884.581	78.03
884.749	86.29
884.916	83.51
885.084	77.71
885.252	83.33
885.42	82.63
885.587	78.86
885.755	75.82
885.923	78.27
886.091	81.94
886.258	82.29
886.426	80.08
886.594	79.22
886.761	80.73
886.929	78.88
887.097	77.88
887.264	84.08
887.432	79.87
887.6	84.04
887.767	82.73
887.935	77.46
888.102	82.19
888.27	86.27
888.438	81.39
888.605	80.49
888.773	81.86
888.94	84.93
889.108	77.77
889.275	81.41
889.443	80.8
889.61	82
889.778	83.8
889.945	79.98
890.112	77.37
890.28	87.42
890.447	81.06
890.615	80.66
890.782	84.65
890.949	83.73
891.117	79.93
891.284	81.75
891.452	83.62
891.619	82.48
891.786	85.15
891.953	82.89
892.121	78.66
892.288	78.93
892.455	85.7
892.623	75.77
892.79	78.16
892.957	85.89
893.124	78.17
893.291	76.34
893.459	86.22
893.626	86.68
893.793	84.03
893.96	81.78
894.127	78.27
894.294	75.2
894.461	79.15
894.629	80.8
894.796	81.24
894.963	82.92
895.13	87.11
895.297	81.66
895.464	78.1
895.631	83.39
895.798	77.52
895.965	82.08
896.132	84.65
896.299	80.13
896.466	79.27
896.633	82.55
896.8	83.01
896.967	79.05
897.134	83.85
897.301	81.84
897.467	86.18
897.634	81.86
897.801	87.58
897.968	86.26
898.135	83.55
898.302	80.86
898.469	79.51
898.635	82.93
898.802	81.87
898.969	80.15
899.136	82.54
899.303	85.17
