Data from 2019-05-04_Transmission_20-17-04-848.txt Node
Date: Sat May 04 20:17:04 EDT 2019
User: dh1006
Spectrometer: USB4E01358
Autoset integration time: false
Trigger mode: 4
Integration Time (sec): 1.000000E-1
Scans to average: 10
Electric dark correction enabled: true
Nonlinearity correction enabled: false
Boxcar width: 0
Stray light correction enabled: false
XAxis mode: Wavelengths
Stop averaging: false
Number of Pixels in Spectrum: 3648
>>>>>Begin Spectral Data<<<<<
176.727	157.69
176.966	157.69
177.205	157.69
177.444	149.04
177.683	-117.71
177.922	-74.64
178.161	-29.73
178.4	504.04
178.638	-4.34
178.877	1019.23
179.116	204.82
179.355	39.15
179.593	95.36
179.832	37.18
180.071	1.07
180.309	23.21
180.548	216.96
180.786	200.69
181.025	64.14
181.263	85
181.502	78.68
181.74	60.42
181.979	156.58
182.217	94.45
182.456	39.11
182.694	24.47
182.932	27.69
183.17	61.59
183.409	45.56
183.647	30.6
183.885	66.36
184.123	55.94
184.361	136.18
184.6	98.96
184.838	49.14
185.076	80.43
185.314	61.51
185.552	72.22
185.79	69.04
186.028	102.31
186.266	77.62
186.503	68.02
186.741	62.62
186.979	29.16
187.217	52.71
187.455	46.69
187.693	94.31
187.93	81.09
188.168	50.7
188.406	59.66
188.643	61.56
188.881	110.87
189.119	80.79
189.356	45.4
189.594	52.16
189.831	59.57
190.069	82.77
190.306	44.63
190.543	30.39
190.781	62.54
191.018	71.63
191.256	74.61
191.493	77.24
191.73	58.32
191.967	60.54
192.205	67.35
192.442	48.49
192.679	99.84
192.916	102.4
193.153	69.5
193.39	76.46
193.628	92.31
193.865	87.23
194.102	49.85
194.339	81.69
194.576	40.41
194.813	82.86
195.049	39.67
195.286	55.98
195.523	56.93
195.76	52.99
195.997	118.72
196.234	58.66
196.47	61.95
196.707	61.18
196.944	92.99
197.18	79.65
197.417	60.85
197.654	50.77
197.89	65.11
198.127	94.45
198.363	59.64
198.6	88.76
198.836	77.08
199.073	62.28
199.309	37.52
199.546	42.69
199.782	20.72
200.018	100.27
200.255	42.39
200.491	81.67
200.727	79.5
200.963	62.95
201.199	85.86
201.436	110.5
201.672	65.22
201.908	41.83
202.144	16.58
202.38	48.37
202.616	43.11
202.852	69.8
203.088	56.75
203.324	79.95
203.56	54.4
203.796	48.53
204.032	79.19
204.268	78.07
204.503	62.64
204.739	63.21
204.975	52.74
205.211	53.76
205.446	120.9
205.682	63.33
205.918	36.03
206.153	34.85
206.389	45.86
206.625	98.05
206.86	44.1
207.096	88.61
207.331	67.91
207.567	92.94
207.802	44.38
208.037	88.91
208.273	91.7
208.508	74.73
208.744	91.55
208.979	68.33
209.214	109.65
209.449	49.7
209.685	85.73
209.92	75.4
210.155	64.01
210.39	74.09
210.625	74.68
210.86	61.67
211.095	77.16
211.33	104.72
211.565	53.87
211.8	71.3
212.035	108.35
212.27	47.11
212.505	56.54
212.74	81.01
212.975	45.27
213.21	61.11
213.444	80.94
213.679	76.02
213.914	93.65
214.149	39.36
214.383	81.36
214.618	70.13
214.853	91.44
215.087	32.77
215.322	69.85
215.556	100.86
215.791	93.67
216.025	92.4
216.26	81.2
216.494	84.64
216.729	38.08
216.963	90.43
217.197	53.85
217.432	64.31
217.666	31.04
217.9	68.51
218.135	40.9
218.369	55.27
218.603	47.47
218.837	51.65
219.071	59.41
219.306	84.79
219.54	54.48
219.774	72.84
220.008	81.98
220.242	86.29
220.476	56.08
220.71	62.61
220.944	84.71
221.178	79.68
221.411	10.08
221.645	94.66
221.879	49.42
222.113	95.27
222.347	88.98
222.58	70.8
222.814	46.49
223.048	80.54
223.281	58.46
223.515	42.02
223.749	60.51
223.982	71.93
224.216	41.58
224.449	29
224.683	87.78
224.916	88.56
225.15	79.5
225.383	159.4
225.617	83.32
225.85	54.26
226.083	105.91
226.317	20.47
226.55	-1.64
226.783	80.33
227.016	73.32
227.25	80.34
227.483	69.61
227.716	57.6
227.949	18.89
228.182	72.74
228.415	52.28
228.648	70.87
228.881	101.84
229.114	120.89
229.347	59.15
229.58	54.38
229.813	54.7
230.046	26.61
230.279	66.35
230.512	44.71
230.745	37.85
230.977	57.24
231.21	56.88
231.443	57.29
231.675	58.13
231.908	70.51
232.141	82.88
232.373	58.31
232.606	54.05
232.839	73.11
233.071	52.95
233.304	61.17
233.536	70.8
233.769	80.68
234.001	107.96
234.233	89.78
234.466	72.92
234.698	84.5
234.93	57.63
235.163	85.44
235.395	45.79
235.627	73.77
235.86	70.15
236.092	48.76
236.324	61.52
236.556	43.63
236.788	50.44
237.02	51.7
237.252	69.7
237.484	51.86
237.716	83.32
237.948	65.38
238.18	127.45
238.412	36.23
238.644	41.99
238.876	36.98
239.108	63.13
239.34	57.39
239.571	68.35
239.803	83.37
240.035	60.05
240.267	69.87
240.498	68.43
240.73	64.55
240.962	113.6
241.193	60.46
241.425	37.43
241.656	64
241.888	72.62
242.119	84.62
242.351	65.22
242.582	56.56
242.814	61.8
243.045	74.45
243.277	47.73
243.508	54.26
243.739	86.9
243.971	43.3
244.202	61.65
244.433	63.13
244.664	75.04
244.896	27.22
245.127	47.34
245.358	81.33
245.589	66.07
245.82	-3.5
246.051	62.92
246.282	52.84
246.513	76.68
246.744	50.97
246.975	99.4
247.206	95.61
247.437	48.16
247.668	68.21
247.899	73.63
248.129	54.83
248.36	88.41
248.591	95.43
248.822	40.24
249.052	69.46
249.283	120.27
249.514	50.89
249.744	72.82
249.975	91.94
250.206	69.87
250.436	56.18
250.667	69.7
250.897	67.38
251.128	36.78
251.358	67.65
251.589	74.62
251.819	48.42
252.049	91.99
252.28	86.73
252.51	33.97
252.74	61.26
252.971	44.87
253.201	96.89
253.431	76.92
253.661	12.78
253.891	77.3
254.121	87.17
254.352	69.71
254.582	71.52
254.812	93.52
255.042	109.88
255.272	38.38
255.502	67.26
255.732	86.8
255.962	83.55
256.192	42.2
256.421	62.6
256.651	67.24
256.881	56.68
257.111	23.88
257.341	58.98
257.57	80.75
257.8	78.56
258.03	94.59
258.259	61.54
258.489	47.6
258.719	55.32
258.948	76.82
259.178	66.37
259.407	48.66
259.637	80.6
259.866	65.6
260.096	50.55
260.325	56.05
260.555	48.25
260.784	72.72
261.013	30.66
261.243	47.84
261.472	83.24
261.701	67.69
261.931	47.86
262.16	72.72
262.389	99.84
262.618	53.54
262.847	93.61
263.076	51.14
263.305	73.69
263.535	46.88
263.764	91.06
263.993	56.04
264.222	68.12
264.451	68.77
264.679	49.05
264.908	80.26
265.137	78.68
265.366	45.39
265.595	45.83
265.824	43.1
266.053	59.62
266.281	41.34
266.51	56.71
266.739	61.23
266.967	55.22
267.196	80.84
267.425	83.75
267.653	66.22
267.882	65.38
268.11	63.57
268.339	48.67
268.567	65.28
268.796	68.16
269.024	50.97
269.253	78
269.481	73.96
269.709	77.34
269.938	33.5
270.166	56.68
270.394	69.76
270.623	63.21
270.851	26.87
271.079	75.9
271.307	46.59
271.535	43.7
271.764	55.45
271.992	23.24
272.22	49.52
272.448	45.7
272.676	58.87
272.904	23.36
273.132	71.29
273.36	46.59
273.588	67.63
273.816	65.22
274.043	70.52
274.271	68.04
274.499	95.13
274.727	84.11
274.955	70.21
275.182	61.9
275.41	62.99
275.638	48.35
275.866	53.59
276.093	63.07
276.321	63.82
276.548	31.29
276.776	63.22
277.003	51.43
277.231	45.61
277.458	37.4
277.686	82.99
277.913	56.57
278.141	58.7
278.368	68.18
278.595	54.5
278.823	65.85
279.05	44.1
279.277	49.39
279.505	59.06
279.732	22.49
279.959	67.18
280.186	62.37
280.413	61.16
280.641	66.51
280.868	65.72
281.095	54.16
281.322	52.67
281.549	67.89
281.776	80.54
282.003	73.34
282.23	67.67
282.457	71.59
282.683	38.99
282.91	62.07
283.137	64.5
283.364	84.41
283.591	120.18
283.818	59.14
284.044	56.72
284.271	62.39
284.498	71.4
284.724	48.38
284.951	41.52
285.178	68.86
285.404	56.76
285.631	100.93
285.857	76.92
286.084	26.1
286.31	80.53
286.537	75.17
286.763	40.04
286.99	66.81
287.216	87.07
287.442	49.9
287.669	43.54
287.895	51.13
288.121	57.26
288.347	70.87
288.574	91.21
288.8	37.26
289.026	30.74
289.252	42.2
289.478	62.79
289.704	57.48
289.931	67.78
290.157	84.29
290.383	77.09
290.609	70.22
290.835	42.37
291.06	47.67
291.286	89.31
291.512	34.03
291.738	67.03
291.964	52.76
292.19	43.29
292.416	64.92
292.641	58.51
292.867	41.45
293.093	50.99
293.319	68.46
293.544	57.99
293.77	35.72
293.995	73.11
294.221	82.73
294.447	51.97
294.672	61.98
294.898	67.58
295.123	66.13
295.349	51.91
295.574	4.43
295.799	57.71
296.025	69.92
296.25	57.02
296.476	53.35
296.701	90.78
296.926	34.76
297.151	65.58
297.377	58.13
297.602	61.73
297.827	41.54
298.052	56.72
298.277	32.79
298.502	68.4
298.727	42.23
298.953	76
299.178	89.74
299.403	39.64
299.628	102.83
299.852	63.83
300.077	43.83
300.302	75.87
300.527	31.17
300.752	52.73
300.977	57.22
301.202	44.89
301.426	48.15
301.651	28.99
301.876	74.66
302.101	79.78
302.325	47.38
302.55	65.93
302.775	36.86
302.999	61.87
303.224	78.02
303.448	72.8
303.673	72.32
303.897	89.28
304.122	45.18
304.346	58.7
304.571	41.78
304.795	67.62
305.019	71.88
305.244	18.24
305.468	61.09
305.692	48.89
305.917	45.45
306.141	52.24
306.365	31.63
306.589	65.74
306.813	86.87
307.038	79.09
307.262	68.04
307.486	57.49
307.71	75.95
307.934	46.99
308.158	62.5
308.382	42.5
308.606	72.59
308.83	74.45
309.054	47.36
309.278	72.26
309.502	47.66
309.725	22.28
309.949	56.92
310.173	80.99
310.397	59.59
310.62	62.66
310.844	62.66
311.068	52.12
311.292	59.12
311.515	37.37
311.739	53.46
311.962	53.81
312.186	73.71
312.41	56.06
312.633	67.68
312.857	54.01
313.08	24.82
313.303	42.45
313.527	60.98
313.75	66.14
313.974	62.84
314.197	65.76
314.42	69.49
314.644	58.91
314.867	46.82
315.09	24.56
315.313	80.85
315.536	54.02
315.76	32.47
315.983	21.48
316.206	41.51
316.429	51.46
316.652	39.17
316.875	70.97
317.098	64.89
317.321	56.14
317.544	59.02
317.767	67.04
317.99	73.75
318.213	64.04
318.436	68.62
318.658	85.31
318.881	29.62
319.104	56.37
319.327	70.52
319.55	70.46
319.772	0.73
319.995	30.14
320.218	97.41
320.44	36.18
320.663	69.8
320.885	32.65
321.108	52.59
321.331	53.6
321.553	53.18
321.776	83.68
321.998	71.3
322.22	71.3
322.443	58.08
322.665	56.46
322.888	41.03
323.11	50.6
323.332	60.82
323.555	52.29
323.777	97.66
323.999	42.39
324.221	61.96
324.443	54.88
324.666	91.93
324.888	61.21
325.11	51.58
325.332	39.08
325.554	48.18
325.776	60.05
325.998	51.95
326.22	43.2
326.442	86.28
326.664	38.49
326.886	42.65
327.108	39.23
327.33	50.24
327.551	50.27
327.773	81.95
327.995	80.52
328.217	41.04
328.439	37.99
328.66	76.68
328.882	70.89
329.104	80.34
329.325	48.32
329.547	55.33
329.769	74.86
329.99	38.08
330.212	61.54
330.433	75.77
330.655	32.51
330.876	57.8
331.098	57.15
331.319	57.51
331.54	65.04
331.762	78.75
331.983	52.36
332.204	101.4
332.426	30.96
332.647	47.35
332.868	48.98
333.089	52.47
333.311	59.34
333.532	58.57
333.753	78.37
333.974	86.97
334.195	64.14
334.416	63.82
334.637	42.65
334.858	41.8
335.079	57.76
335.3	54.35
335.521	48.55
335.742	73.57
335.963	67.77
336.184	19.22
336.405	52.92
336.626	35.38
336.846	62.72
337.067	54.12
337.288	53.54
337.509	67.19
337.729	59.36
337.95	43.56
338.171	68.1
338.391	61.31
338.612	38.13
338.833	46.02
339.053	77.98
339.274	80.91
339.494	41.14
339.715	48.01
339.935	85.94
340.156	56.63
340.376	54.74
340.596	61.69
340.817	77.29
341.037	54.29
341.257	96.31
341.478	64.91
341.698	78.33
341.918	66.24
342.138	31.56
342.359	58.34
342.579	66.48
342.799	39.92
343.019	55.07
343.239	58.06
343.459	36.61
343.679	64.56
343.899	83.45
344.119	65.98
344.339	65.09
344.559	70.99
344.779	50.87
344.999	42.81
345.219	71.71
345.439	87.36
345.658	90.35
345.878	70.76
346.098	48.86
346.318	33.06
346.537	50.28
346.757	73.34
346.977	64.89
347.196	51.61
347.416	70.24
347.636	38.99
347.855	37.94
348.075	35.03
348.294	53.69
348.514	84.71
348.733	83.36
348.953	67.39
349.172	72.29
349.392	85.72
349.611	47.21
349.83	61.26
350.05	53.85
350.269	83.53
350.488	65.55
350.707	56.39
350.927	51.25
351.146	80.57
351.365	53.53
351.584	26.52
351.803	66.72
352.023	52.7
352.242	52.31
352.461	86.32
352.68	71.11
352.899	94.4
353.118	55.68
353.337	46.12
353.556	64.2
353.775	65.6
353.993	64.5
354.212	47.85
354.431	70.42
354.65	81.25
354.869	38.38
355.088	69.53
355.306	68.84
355.525	43.15
355.744	43.62
355.962	79.43
356.181	62.38
356.4	67.84
356.618	62.64
356.837	53.9
357.055	-5.39
357.274	73.87
357.492	60.64
357.711	59.44
357.929	65.56
358.148	73.51
358.366	-4.59
358.585	50.85
358.803	45.65
359.021	54.29
359.24	62.47
359.458	54.92
359.676	65.39
359.894	95.52
360.113	54.52
360.331	51.72
360.549	56
360.767	50.86
360.985	55.4
361.203	75.87
361.421	56
361.639	50.39
361.857	62.6
362.075	41.15
362.293	52.6
362.511	38.05
362.729	71.99
362.947	57.4
363.165	86.88
363.383	33.1
363.601	82.53
363.819	60.25
364.036	88.66
364.254	71.45
364.472	63.17
364.689	68.76
364.907	54.6
365.125	31.2
365.342	74.7
365.56	49.34
365.778	52.44
365.995	54.97
366.213	75.11
366.43	67.76
366.648	52.89
366.865	33.46
367.083	84.37
367.3	82.14
367.517	72.77
367.735	46.99
367.952	43.25
368.17	81.57
368.387	71.45
368.604	37.24
368.821	47.82
369.039	47.95
369.256	91.56
369.473	60.95
369.69	54.67
369.907	36.72
370.124	64.7
370.341	67.2
370.558	67.62
370.776	54.45
370.993	75.09
371.21	51.76
371.426	55.11
371.643	42.36
371.86	70.24
372.077	62.37
372.294	89.72
372.511	49.19
372.728	87.38
372.945	57.9
373.161	59.26
373.378	46.28
373.595	73.64
373.811	77.3
374.028	59.69
374.245	25.44
374.461	67.97
374.678	49.52
374.895	68.52
375.111	43.79
375.328	67.55
375.544	51.71
375.761	70.36
375.977	59.2
376.194	83.87
376.41	44.48
376.626	65.62
376.843	58.92
377.059	44.67
377.275	53.7
377.492	30.18
377.708	61.18
377.924	60.75
378.14	64.29
378.357	47.17
378.573	69.82
378.789	46.02
379.005	69.02
379.221	74.98
379.437	29.49
379.653	69.17
379.869	64.78
380.085	64.53
380.301	70.33
380.517	94.02
380.733	60.32
380.949	70.69
381.165	44.89
381.381	61.9
381.597	58.97
381.813	81.19
382.028	70.41
382.244	63.11
382.46	53.62
382.676	67.43
382.891	51.06
383.107	60.15
383.323	64.3
383.538	55.05
383.754	42.66
383.969	57.71
384.185	59.24
384.4	62.3
384.616	63.02
384.831	66.56
385.047	66.71
385.262	63.27
385.478	77.95
385.693	75.26
385.909	67.07
386.124	79.48
386.339	66.52
386.554	82.17
386.77	63.23
386.985	79.45
387.2	64.95
387.415	73.19
387.631	64.45
387.846	59.58
388.061	62.98
388.276	64.82
388.491	76.33
388.706	69.52
388.921	76.1
389.136	79.63
389.351	59.69
389.566	70.48
389.781	54.72
389.996	77.3
390.211	70.99
390.426	79.64
390.641	71.83
390.855	68.68
391.07	89.5
391.285	76.53
391.5	80.69
391.714	74.12
391.929	82.16
392.144	81.96
392.358	70.28
392.573	81.13
392.788	84.14
393.002	80.94
393.217	75.61
393.431	63.34
393.646	69.46
393.86	87.84
394.075	81.15
394.289	82.27
394.504	92.04
394.718	76.18
394.933	90.36
395.147	76.87
395.361	84.54
395.576	77.92
395.79	81.52
396.004	88.28
396.218	88.94
396.432	84.87
396.647	75.56
396.861	84.15
397.075	89.36
397.289	86.09
397.503	81.26
397.717	87.63
397.931	85.52
398.145	89.78
398.359	82.7
398.573	80.38
398.787	84.93
399.001	90.35
399.215	83.9
399.429	91.4
399.643	88.81
399.857	94.72
400.07	88.19
400.284	92.23
400.498	87.94
400.712	95.94
400.925	97.9
401.139	87.01
401.353	89.82
401.566	86.99
401.78	91.51
401.994	92.99
402.207	88.65
402.421	88.23
402.634	88.41
402.848	90.18
403.061	90.94
403.275	90.74
403.488	91.89
403.702	97.26
403.915	91.32
404.128	94.84
404.342	94.56
404.555	96.92
404.768	99.92
404.982	93.26
405.195	89.37
405.408	92.14
405.621	94.06
405.835	93.52
406.048	95.78
406.261	90.25
406.474	96.24
406.687	93.03
406.9	97.64
407.113	96.66
407.326	98.45
407.539	96.11
407.752	92.78
407.965	93.35
408.178	95.15
408.391	94.28
408.604	96.75
408.817	97.04
409.029	99.53
409.242	99.32
409.455	92.6
409.668	95.74
409.881	97.41
410.093	93.98
410.306	93.57
410.519	95.58
410.731	95.22
410.944	94.24
411.157	92.4
411.369	90.1
411.582	92.47
411.794	92.18
412.007	90.25
412.219	93.41
412.432	89.44
412.644	89.89
412.857	88.31
413.069	88.82
413.281	91.85
413.494	90.08
413.706	88.02
413.918	86.7
414.131	86.12
414.343	84.77
414.555	82.65
414.767	84.62
414.979	82.68
415.192	82.56
415.404	83.02
415.616	80.9
415.828	81.58
416.04	80.46
416.252	81.76
416.464	79.62
416.676	77.62
416.888	78.14
417.1	77.13
417.312	77.66
417.524	74.95
417.736	73.76
417.948	72.89
418.159	73.41
418.371	72.07
418.583	72.37
418.795	70.52
419.007	70.9
419.218	68.33
419.43	69.42
419.642	68.73
419.853	64.86
420.065	67.21
420.276	67.58
420.488	62.29
420.7	63.99
420.911	62.41
421.123	62.06
421.334	61.81
421.546	59.19
421.757	58.86
421.969	57.65
422.18	56.81
422.391	56.28
422.603	56.55
422.814	55.68
423.025	55.62
423.237	54.02
423.448	52.64
423.659	52.87
423.87	51.65
424.082	50.07
424.293	49.26
424.504	50.91
424.715	48.09
424.926	46.55
425.137	46.71
425.348	47.69
425.559	45.65
425.77	45.37
425.981	43.81
426.192	45.36
426.403	43.66
426.614	41.98
426.825	42.62
427.036	41.86
427.247	42.45
427.458	40.85
427.668	39.61
427.879	39.33
428.09	39.31
428.301	38.38
428.511	37.65
428.722	36.26
428.933	36.06
429.143	36.98
429.354	36.09
429.565	35.73
429.775	35.15
429.986	34.32
430.196	31.94
430.407	33.82
430.617	31.94
430.828	33.19
431.038	31.64
431.249	31.63
431.459	31.13
431.669	31.17
431.88	31.34
432.09	30.34
432.3	29.78
432.511	28.55
432.721	28.76
432.931	28.29
433.141	29.19
433.351	28.65
433.562	27.45
433.772	27.32
433.982	26.55
434.192	25.77
434.402	26.98
434.612	25.6
434.822	25.15
435.032	23.79
435.242	26.05
435.452	22.98
435.662	23.53
435.872	24.21
436.082	25.89
436.292	23.5
436.502	23
436.711	23.05
436.921	22.86
437.131	21.62
437.341	21.91
437.551	20.56
437.76	21.87
437.97	20.86
438.18	21.7
438.389	21.49
438.599	21.11
438.808	21.35
439.018	20.39
439.228	20.06
439.437	19.6
439.647	19.94
439.856	19.99
440.066	19.96
440.275	19.52
440.484	17.92
440.694	19.08
440.903	17.78
441.113	19.62
441.322	17.24
441.531	18.91
441.741	19.06
441.95	18.21
442.159	17.18
442.368	18.4
442.577	18.55
442.787	18.2
442.996	16.67
443.205	18.46
443.414	17.2
443.623	17.83
443.832	18.79
444.041	16.95
444.25	17.38
444.459	16.67
444.668	16.37
444.877	16.51
445.086	16.18
445.295	16.25
445.504	16.14
445.713	16.38
445.922	16.58
446.13	17.13
446.339	15.84
446.548	15.05
446.757	16.71
446.965	15.73
447.174	16.2
447.383	15.99
447.591	14.99
447.8	14.65
448.009	16.75
448.217	16.59
448.426	15.72
448.634	13.67
448.843	14.19
449.051	14.21
449.26	14.73
449.468	14.21
449.677	14.99
449.885	14.2
450.093	13.04
450.302	14.31
450.51	14.93
450.719	14.28
450.927	15.76
451.135	14.89
451.343	14.52
451.552	14.02
451.76	13.79
451.968	14.51
452.176	13.7
452.384	13.62
452.592	14.49
452.8	13.63
453.009	13.83
453.217	14.25
453.425	15.33
453.633	13.99
453.841	12.67
454.049	13.12
454.257	14.64
454.464	14.9
454.672	12.84
454.88	12.93
455.088	12.71
455.296	12.93
455.504	12.45
455.711	13.98
455.919	13.45
456.127	15.55
456.335	12.57
456.542	12.47
456.75	12.94
456.958	14.2
457.165	12.06
457.373	13.74
457.581	12.86
457.788	13.96
457.996	13.11
458.203	13.5
458.411	12.09
458.618	13.29
458.826	12.43
459.033	12.17
459.24	12.47
459.448	12.83
459.655	13.49
459.863	12.61
460.07	13.46
460.277	12.86
460.484	12.89
460.692	11.43
460.899	11.67
461.106	11.9
461.313	12.47
461.52	12.16
461.728	13.38
461.935	12.23
462.142	12.98
462.349	11.77
462.556	12.62
462.763	12.93
462.97	13.17
463.177	12.73
463.384	12.82
463.591	11.3
463.798	12.6
464.005	12.11
464.212	11.54
464.418	12.91
464.625	11.49
464.832	12.36
465.039	12.52
465.246	13.6
465.452	13.2
465.659	11.97
465.866	13.11
466.072	12.85
466.279	11.81
466.486	11.16
466.692	13.17
466.899	12.52
467.105	13.29
467.312	11.54
467.519	12.56
467.725	12.22
467.931	13.34
468.138	11.92
468.344	12.18
468.551	12.72
468.757	10.95
468.964	12.52
469.17	12.26
469.376	11.48
469.583	12.4
469.789	12.78
469.995	11.84
470.201	11.75
470.408	12.27
470.614	12.19
470.82	12.38
471.026	12.27
471.232	12.09
471.438	12.17
471.644	12.07
471.85	12.16
472.056	13.07
472.262	12.98
472.468	13.16
472.674	11.28
472.88	13.52
473.086	13.45
473.292	12.29
473.498	12.66
473.704	13.19
473.91	12.86
474.116	12.45
474.321	12.79
474.527	12.44
474.733	12.69
474.939	13.19
475.144	13.78
475.35	13.08
475.556	12.66
475.761	13.73
475.967	13.03
476.173	12.89
476.378	13.02
476.584	12.1
476.789	12.47
476.995	13.2
477.2	12.62
477.406	14.25
477.611	13.46
477.817	13.45
478.022	13.56
478.227	13.08
478.433	13.88
478.638	13.19
478.843	13.72
479.049	13.15
479.254	14.15
479.459	13.9
479.664	13.88
479.87	13.54
480.075	13.52
480.28	14.23
480.485	14.54
480.69	14.27
480.895	14.41
481.1	14.33
481.306	14.04
481.511	14.18
481.716	14.57
481.921	14.12
482.126	14.41
482.33	14.39
482.535	14.14
482.74	15.3
482.945	14.72
483.15	14.69
483.355	14.43
483.56	15.07
483.765	15.12
483.969	15.33
484.174	15.29
484.379	15.68
484.583	15.92
484.788	16.04
484.993	15.86
485.197	16.67
485.402	16.09
485.607	16.58
485.811	15.83
486.016	16.35
486.22	16.36
486.425	16.73
486.629	16.75
486.834	17.91
487.038	16.74
487.243	17.66
487.447	17.8
487.652	17.81
487.856	17.93
488.06	18.14
488.265	17.91
488.469	18.4
488.673	18.21
488.877	18.8
489.082	19.38
489.286	18.53
489.49	18.74
489.694	19.53
489.898	19.53
490.102	19.86
490.307	20.23
490.511	20.29
490.715	20.38
490.919	20.66
491.123	20.49
491.327	20.57
491.531	21.38
491.735	21.12
491.939	21.15
492.143	21.68
492.346	21.74
492.55	21.94
492.754	22.4
492.958	22.54
493.162	22.96
493.366	22.89
493.569	24.02
493.773	23.49
493.977	23.99
494.18	23.79
494.384	24.72
494.588	24.83
494.791	25.56
494.995	25.62
495.199	26.11
495.402	26.07
495.606	26.51
495.809	27.24
496.013	27.19
496.216	27.42
496.42	27.78
496.623	28.17
496.827	28.47
497.03	28.44
497.233	29.77
497.437	29.08
497.64	29.83
497.843	30.72
498.047	31.23
498.25	31.36
498.453	31.81
498.656	32.31
498.86	32.61
499.063	32.85
499.266	33.7
499.469	34.45
499.672	34.98
499.875	35.19
500.078	35.44
500.281	36.31
500.484	36.77
500.687	37.55
500.89	37.95
501.093	38.33
501.296	39.24
501.499	39.99
501.702	40.22
501.905	41.9
502.108	41.76
502.311	42.45
502.514	43.28
502.716	43.57
502.919	44.67
503.122	45.19
503.325	45.93
503.527	46.62
503.73	47.79
503.933	48.07
504.135	49.25
504.338	50.2
504.541	50.59
504.743	51.47
504.946	51.8
505.148	52.97
505.351	54.57
505.553	55.03
505.756	55.67
505.958	56.83
506.161	57.89
506.363	59.59
506.565	60.01
506.768	60.85
506.97	62.65
507.172	62.9
507.375	64.32
507.577	65.47
507.779	66.52
507.982	67.96
508.184	67.95
508.386	69.05
508.588	70.53
508.79	71.8
508.993	72.88
509.195	73
509.397	74.55
509.599	75.94
509.801	76.51
510.003	77.89
510.205	78.66
510.407	79.97
510.609	81.9
510.811	82.64
511.013	83.8
511.215	84.46
511.417	86.11
511.618	86.58
511.82	88.02
512.022	88.74
512.224	88.77
512.426	90.47
512.627	91.12
512.829	92.44
513.031	92.93
513.233	92.77
513.434	94.76
513.636	94.65
513.838	95.36
514.039	96.93
514.241	97.02
514.442	97.29
514.644	96.59
514.845	97.23
515.047	97.61
515.248	97.84
515.45	97.87
515.651	97.77
515.853	98.63
516.054	98.89
516.256	98.72
516.457	99.03
516.658	98.68
516.86	98.56
517.061	97.68
517.262	97.11
517.463	97.79
517.665	97.16
517.866	96.55
518.067	96.36
518.268	95.76
518.469	93.95
518.67	94.19
518.872	92.77
519.073	92.62
519.274	92.24
519.475	91.22
519.676	90.41
519.877	89.98
520.078	88.27
520.279	88.02
520.48	87.3
520.681	86.09
520.881	85.22
521.082	83.97
521.283	82.88
521.484	82.41
521.685	81.4
521.886	80.14
522.086	79.14
522.287	77.98
522.488	76.74
522.689	76.43
522.889	74.84
523.09	73.94
523.291	73.13
523.491	72.21
523.692	71.08
523.892	70.17
524.093	68.89
524.294	68.26
524.494	67.15
524.695	66.29
524.895	64.57
525.096	64
525.296	63.1
525.496	61.79
525.697	61.04
525.897	60.04
526.098	58.86
526.298	58.35
526.498	57.57
526.699	56.39
526.899	55.52
527.099	54.49
527.299	53.8
527.499	53.22
527.7	52.56
527.9	51.36
528.1	51
528.3	49.94
528.5	49.71
528.7	48.65
528.9	47.75
529.1	47.44
529.3	46.42
529.5	45.72
529.7	45.1
529.9	44.37
530.1	43.76
530.3	43.14
530.5	42.31
530.7	41.79
530.9	41.32
531.1	40.26
531.3	39.87
531.499	39.65
531.699	38.84
531.899	38.6
532.099	37.93
532.298	37.09
532.498	36.82
532.698	36.07
532.897	35.53
533.097	35.32
533.297	34.67
533.496	34.44
533.696	33.86
533.895	33.41
534.095	32.98
534.294	32.74
534.494	32.05
534.693	31.7
534.893	31.28
535.092	31.26
535.292	30.58
535.491	30.29
535.69	29.73
535.89	29.33
536.089	28.99
536.288	28.78
536.488	28.23
536.687	28.17
536.886	27.65
537.085	27.42
537.285	26.93
537.484	26.89
537.683	26.41
537.882	26.14
538.081	25.89
538.28	25.45
538.479	25.38
538.678	25.17
538.877	24.67
539.076	24.3
539.275	24.24
539.474	23.93
539.673	23.7
539.872	23.42
540.071	23.35
540.27	22.76
540.469	22.62
540.668	22.47
540.867	22.42
541.065	22.07
541.264	21.6
541.463	21.55
541.662	21.54
541.861	20.93
542.059	20.85
542.258	20.72
542.457	20.83
542.655	20.47
542.854	20.18
543.052	19.8
543.251	20.05
543.45	19.7
543.648	19.6
543.847	19.15
544.045	19.1
544.244	18.9
544.442	18.72
544.641	18.69
544.839	18.62
545.037	18.31
545.236	18.31
545.434	18.14
545.632	18.06
545.831	17.59
546.029	17.63
546.227	17.44
546.426	17.29
546.624	17.11
546.822	17.28
547.02	16.96
547.218	16.85
547.417	16.7
547.615	16.37
547.813	16.48
548.011	16.42
548.209	16.12
548.407	16.14
548.605	15.96
548.803	15.85
549.001	15.82
549.199	15.59
549.397	15.56
549.595	15.54
549.793	15.21
549.991	15.2
550.189	15.28
550.387	14.96
550.584	14.81
550.782	15.05
550.98	14.83
551.178	14.67
551.376	14.56
551.573	14.6
551.771	14.39
551.969	14.31
552.166	14.14
552.364	14.33
552.562	13.91
552.759	13.92
552.957	13.83
553.154	13.68
553.352	13.73
553.55	13.66
553.747	13.44
553.945	13.37
554.142	13.4
554.339	13.52
554.537	13.31
554.734	13.3
554.932	13.12
555.129	13
555.326	13.07
555.524	12.84
555.721	12.98
555.918	12.89
556.116	12.63
556.313	12.64
556.51	12.52
556.707	12.57
556.904	12.42
557.102	12.34
557.299	12.53
557.496	12.26
557.693	12.25
557.89	12.2
558.087	12.12
558.284	12.09
558.481	12.05
558.678	11.9
558.875	12
559.072	12.13
559.269	11.81
559.466	11.81
559.663	11.63
559.86	11.72
560.057	11.69
560.254	11.67
560.45	11.7
560.647	11.63
560.844	11.52
561.041	11.52
561.237	11.47
561.434	11.29
561.631	11.33
561.828	11.21
562.024	11.25
562.221	11.15
562.418	11.15
562.614	11.18
562.811	11.06
563.007	11.07
563.204	10.94
563.4	10.87
563.597	11.07
563.793	10.82
563.99	10.83
564.186	10.8
564.383	10.92
564.579	10.72
564.775	10.75
564.972	10.84
565.168	10.69
565.365	10.7
565.561	10.65
565.757	10.6
565.953	10.58
566.15	10.53
566.346	10.54
566.542	10.42
566.738	10.37
566.934	10.39
567.131	10.4
567.327	10.44
567.523	10.39
567.719	10.36
567.915	10.27
568.111	10.35
568.307	10.45
568.503	10.44
568.699	10.26
568.895	10.22
569.091	10.11
569.287	10.12
569.483	10.08
569.679	10.24
569.875	10.19
570.07	10.14
570.266	10.19
570.462	10.13
570.658	10.1
570.854	10.16
571.049	9.94
571.245	9.89
571.441	10.05
571.636	10.04
571.832	10.04
572.028	10.02
572.223	10.01
572.419	9.9
572.615	9.82
572.81	10.01
573.006	9.9
573.201	9.91
573.397	9.95
573.592	9.76
573.788	9.9
573.983	9.78
574.179	9.86
574.374	9.82
574.569	9.98
574.765	9.74
574.96	9.77
575.156	9.93
575.351	9.77
575.546	9.69
575.741	9.82
575.937	9.67
576.132	9.64
576.327	9.64
576.522	9.74
576.718	9.82
576.913	9.72
577.108	9.66
577.303	9.69
577.498	9.65
577.693	9.64
577.888	9.63
578.083	9.71
578.278	9.63
578.473	9.6
578.668	9.64
578.863	9.58
579.058	9.72
579.253	9.59
579.448	9.59
579.643	9.75
579.838	9.56
580.033	9.77
580.227	9.57
580.422	9.62
580.617	9.67
580.812	9.75
581.006	9.65
581.201	9.63
581.396	9.68
581.591	9.53
581.785	9.7
581.98	9.57
582.175	9.5
582.369	9.7
582.564	9.62
582.758	9.74
582.953	9.59
583.147	9.66
583.342	9.6
583.536	9.53
583.731	9.56
583.925	9.68
584.12	9.61
584.314	9.62
584.509	9.63
584.703	9.61
584.897	9.64
585.092	9.8
585.286	9.67
585.48	9.81
585.674	9.67
585.869	9.67
586.063	9.78
586.257	9.63
586.451	9.76
586.646	9.72
586.84	9.81
587.034	9.67
587.228	9.66
587.422	9.84
587.616	9.81
587.81	9.74
588.004	9.67
588.198	9.8
588.392	9.88
588.586	9.8
588.78	9.78
588.974	9.93
589.168	9.75
589.362	9.84
589.556	9.75
589.75	9.93
589.944	9.87
590.137	9.83
590.331	9.84
590.525	9.88
590.719	9.89
590.913	9.97
591.106	9.91
591.3	9.96
591.494	10.02
591.687	9.94
591.881	9.99
592.075	10.04
592.268	10.04
592.462	10.05
592.655	10.08
592.849	10.12
593.043	10.11
593.236	10.07
593.43	10.14
593.623	10.1
593.817	10.12
594.01	10.25
594.203	10.17
594.397	10.25
594.59	10.31
594.784	10.28
594.977	10.13
595.17	10.32
595.364	10.27
595.557	10.3
595.75	10.2
595.943	10.33
596.137	10.37
596.33	10.44
596.523	10.47
596.716	10.48
596.909	10.45
597.102	10.41
597.296	10.49
597.489	10.49
597.682	10.49
597.875	10.5
598.068	10.53
598.261	10.55
598.454	10.63
598.647	10.58
598.84	10.62
599.033	10.59
599.226	10.72
599.419	10.73
599.611	10.66
599.804	10.95
599.997	10.8
600.19	10.9
600.383	10.85
600.576	10.91
600.768	10.99
600.961	10.85
601.154	10.9
601.347	10.94
601.539	11.02
601.732	11
601.925	11.12
602.117	11.02
602.31	11.18
602.502	11.19
602.695	11.15
602.888	11.2
603.08	11.21
603.273	11.27
603.465	11.3
603.658	11.41
603.85	11.33
604.043	11.38
604.235	11.48
604.427	11.61
604.62	11.46
604.812	11.61
605.004	11.45
605.197	11.6
605.389	11.7
605.581	11.7
605.774	11.69
605.966	11.76
606.158	11.76
606.35	11.81
606.543	11.86
606.735	12.04
606.927	11.95
607.119	11.92
607.311	11.99
607.503	11.97
607.695	12.04
607.887	12.09
608.079	12.12
608.271	12.15
608.463	12.18
608.655	12.12
608.847	12.31
609.039	12.28
609.231	12.33
609.423	12.34
609.615	12.46
609.807	12.42
609.999	12.6
610.191	12.53
610.382	12.54
610.574	12.58
610.766	12.7
610.958	12.65
611.15	12.81
611.341	12.76
611.533	12.84
611.725	12.94
611.916	12.96
612.108	12.99
612.3	13.12
612.491	13.14
612.683	13.2
612.874	13.27
613.066	13.15
613.257	13.31
613.449	13.29
613.64	13.48
613.832	13.55
614.023	13.5
614.215	13.6
614.406	13.66
614.598	13.62
614.789	13.6
614.98	13.76
615.172	13.75
615.363	13.92
615.554	13.98
615.746	13.86
615.937	14.05
616.128	14.09
616.319	14.21
616.511	14.29
616.702	14.3
616.893	14.31
617.084	14.27
617.275	14.39
617.466	14.49
617.658	14.54
617.849	14.61
618.04	14.58
618.231	14.72
618.422	14.87
618.613	14.75
618.804	14.97
618.995	15.01
619.186	15.09
619.377	14.98
619.568	15.1
619.758	15.33
619.949	15.13
620.14	15.35
620.331	15.48
620.522	15.44
620.713	15.54
620.903	15.71
621.094	15.72
621.285	15.76
621.476	15.9
621.666	15.94
621.857	15.98
622.048	15.9
622.238	16.06
622.429	16.05
622.62	16.07
622.81	16.24
623.001	16.36
623.191	16.53
623.382	16.55
623.572	16.44
623.763	16.77
623.953	16.83
624.144	16.94
624.334	16.82
624.525	17.07
624.715	17.09
624.905	17.17
625.096	17.33
625.286	17.36
625.477	17.51
625.667	17.49
625.857	17.57
626.047	17.69
626.238	17.66
626.428	17.69
626.618	18.08
626.808	17.95
626.999	18.04
627.189	18.13
627.379	18.37
627.569	18.44
627.759	18.46
627.949	18.56
628.139	18.66
628.329	18.76
628.519	18.79
628.709	18.99
628.899	19.14
629.089	19.18
629.279	19.12
629.469	19.3
629.659	19.36
629.849	19.47
630.039	19.65
630.229	19.68
630.419	19.79
630.609	19.99
630.798	20.02
630.988	20.13
631.178	20.32
631.368	20.15
631.557	20.45
631.747	20.52
631.937	20.52
632.127	20.77
632.316	20.71
632.506	20.99
632.696	21
632.885	21.17
633.075	21.35
633.264	21.34
633.454	21.43
633.643	21.6
633.833	21.62
634.022	21.82
634.212	21.94
634.401	22.1
634.591	22.11
634.78	22.22
634.97	22.28
635.159	22.51
635.348	22.69
635.538	22.79
635.727	22.76
635.916	22.87
636.106	23.09
636.295	23.24
636.484	23.38
636.674	23.39
636.863	23.69
637.052	23.75
637.241	23.9
637.43	24.06
637.619	24.27
637.809	24.42
637.998	24.39
638.187	24.68
638.376	24.57
638.565	24.9
638.754	25.05
638.943	25.17
639.132	25.24
639.321	25.36
639.51	25.59
639.699	25.9
639.888	25.77
640.077	25.95
640.266	25.99
640.455	26.26
640.643	26.44
640.832	26.7
641.021	26.69
641.21	26.82
641.399	26.84
641.587	27.21
641.776	27.34
641.965	27.45
642.154	27.53
642.342	27.66
642.531	27.8
642.72	28.02
642.908	28.22
643.097	28.41
643.286	28.69
643.474	28.89
643.663	28.88
643.851	29.09
644.04	29.19
644.228	29.28
644.417	29.49
644.605	29.89
644.794	29.96
644.982	29.94
645.171	30.17
645.359	30.52
645.547	30.62
645.736	30.78
645.924	31.06
646.112	31.22
646.301	31.34
646.489	31.53
646.677	31.64
646.866	31.96
647.054	32.11
647.242	32.34
647.43	32.45
647.618	32.77
647.807	32.91
647.995	33
648.183	33.19
648.371	33.58
648.559	33.58
648.747	33.76
648.935	33.87
649.123	34.19
649.311	34.28
649.499	34.7
649.687	34.95
649.875	34.99
650.063	35.31
650.251	35.63
650.439	35.57
650.627	36.07
650.815	36.08
651.003	36.33
651.191	36.55
651.378	36.67
651.566	36.84
651.754	37.1
651.942	37.34
652.13	37.65
652.317	37.73
652.505	38.03
652.693	38.17
652.88	38.48
653.068	38.61
653.256	38.91
653.443	39.11
653.631	39.24
653.819	39.49
654.006	40.09
654.194	39.99
654.381	40.49
654.569	40.6
654.756	41.03
654.944	41.08
655.131	41.24
655.319	41.77
655.506	42.04
655.693	42.13
655.881	42.45
656.068	42.48
656.256	42.82
656.443	43.23
656.63	43.33
656.818	43.55
657.005	43.8
657.192	44.27
657.379	44.45
657.567	44.75
657.754	44.87
657.941	45.28
658.128	45.49
658.315	45.87
658.502	46.02
658.69	46.22
658.877	46.45
659.064	46.69
659.251	47.07
659.438	47.22
659.625	47.66
659.812	47.89
659.999	48.07
660.186	48.31
660.373	48.54
660.56	48.83
660.747	49.07
660.934	49.45
661.121	49.98
661.308	50.05
661.494	50.47
661.681	50.54
661.868	50.91
662.055	51.36
662.242	51.5
662.428	51.98
662.615	52.3
662.802	52.46
662.989	53.06
663.175	53.22
663.362	53.42
663.549	53.69
663.735	54.23
663.922	54.41
664.109	54.59
664.295	54.92
664.482	55.27
664.668	55.37
664.855	55.84
665.041	55.95
665.228	56.47
665.414	56.69
665.601	57.13
665.787	57.35
665.974	57.8
666.16	58.07
666.347	58.19
666.533	58.66
666.719	58.84
666.906	59.1
667.092	59.7
667.278	60.03
667.465	60.48
667.651	60.61
667.837	60.94
668.023	61.32
668.21	61.56
668.396	61.82
668.582	62.26
668.768	62.44
668.954	62.69
669.14	63.28
669.327	63.4
669.513	63.83
669.699	64.09
669.885	64.45
670.071	64.63
670.257	65.05
670.443	65.66
670.629	65.95
670.815	66.11
671.001	66.35
671.187	66.55
671.373	67.04
671.559	67.36
671.744	67.93
671.93	68.06
672.116	68.23
672.302	68.84
672.488	68.85
672.674	69.32
672.859	69.55
673.045	70.1
673.231	70.5
673.417	70.6
673.602	70.93
673.788	71.29
673.974	71.79
674.159	72.01
674.345	72.48
674.531	72.72
674.716	72.66
674.902	73.38
675.087	73.83
675.273	73.93
675.459	74.75
675.644	74.45
675.83	74.86
676.015	75.33
676.2	75.75
676.386	76.14
676.571	76.43
676.757	76.51
676.942	76.95
677.128	77.39
677.313	77.66
677.498	77.99
677.684	78.32
677.869	78.63
678.054	78.92
678.24	79.31
678.425	79.56
678.61	80.05
678.795	80.33
678.98	80.67
679.166	81.2
679.351	81.57
679.536	81.57
679.721	81.95
679.906	82.26
680.091	82.59
680.276	82.71
680.461	83.07
680.647	83.3
680.832	83.74
681.017	83.78
681.202	84.26
681.387	84.35
681.572	85.11
681.756	85.56
681.941	85.69
682.126	85.86
682.311	86.47
682.496	86.88
682.681	86.87
682.866	87.11
683.051	87.08
683.235	87.42
683.42	87.96
683.605	88.12
683.79	88.69
683.974	88.95
684.159	88.83
684.344	89.37
684.529	89.58
684.713	89.72
684.898	89.71
685.083	90.47
685.267	90.72
685.452	90.87
685.636	91.31
685.821	91.48
686.005	91.85
686.19	91.87
686.375	92.04
686.559	92.09
686.744	92.8
686.928	92.93
687.112	93.17
687.297	93.49
687.481	93.63
687.666	93.79
687.85	94.05
688.034	94.18
688.219	94.49
688.403	94.3
688.587	94.47
688.772	95.15
688.956	95.21
689.14	95.67
689.324	95.72
689.509	96.14
689.693	96.43
689.877	96.69
690.061	96.86
690.245	97.08
690.43	97.08
690.614	97.43
690.798	97.28
690.982	98.19
691.166	98.09
691.35	98.14
691.534	98.08
691.718	98.35
691.902	98.75
692.086	98.84
692.27	98.83
692.454	99.24
692.638	99.65
692.822	99.8
693.006	99.95
693.19	99.91
693.373	99.9
693.557	100.32
693.741	100.64
693.925	100.52
694.109	100.9
694.293	100.7
694.476	100.91
694.66	100.94
694.844	101.23
695.027	101.45
695.211	101.49
695.395	101.94
695.578	101.51
695.762	101.77
695.946	102.02
696.129	101.94
696.313	102.62
696.497	102.59
696.68	103.02
696.864	102.9
697.047	103.37
697.231	102.84
697.414	103.21
697.598	103.47
697.781	103.72
697.965	103.82
698.148	104.01
698.331	104.84
698.515	104.54
698.698	104.46
698.881	104.59
699.065	104.6
699.248	104.73
699.431	104.56
699.615	104.77
699.798	105.03
699.981	105.05
700.165	104.9
700.348	105.05
700.531	104.89
700.714	104.88
700.897	105.15
701.08	104.96
701.264	105.16
701.447	105.24
701.63	105.55
701.813	105.61
701.996	105.64
702.179	106.16
702.362	106.06
702.545	106.09
702.728	105.84
702.911	105.82
703.094	106.21
703.277	106.48
703.46	106.39
703.643	106.15
703.826	106.79
704.009	106.24
704.191	106.42
704.374	106.82
704.557	106.58
704.74	106.72
704.923	106.56
705.106	106.67
705.288	107.11
705.471	106.83
705.654	107.36
705.837	107.23
706.019	107.57
706.202	107.21
706.385	107.12
706.567	106.93
706.75	106.95
706.932	106.92
707.115	107.43
707.298	107.38
707.48	107.54
707.663	107.27
707.845	107.59
708.028	107.41
708.21	107.7
708.393	107.74
708.575	107.06
708.758	107.12
708.94	107.54
709.123	107.19
709.305	106.88
709.487	107.49
709.67	107.59
709.852	107.73
710.034	107.74
710.217	107.59
710.399	107.52
710.581	107.49
710.764	107.61
710.946	107.11
711.128	107.48
711.31	107.85
711.492	107.6
711.675	107.63
711.857	107.49
712.039	107.55
712.221	107.54
712.403	107.53
712.585	107.54
712.767	107.52
712.949	107.77
713.131	107.66
713.314	107.44
713.496	107.12
713.678	106.94
713.86	107.58
714.041	107.32
714.223	107.27
714.405	107.08
714.587	106.68
714.769	106.98
714.951	107.03
715.133	107.09
715.315	107.11
715.497	107.26
715.678	106.94
715.86	107.22
716.042	107.22
716.224	107.29
716.406	107.06
716.587	107.3
716.769	107.16
716.951	107.01
717.132	107.18
717.314	107.14
717.496	107.06
717.677	107.03
717.859	107.15
718.041	107.27
718.222	106.94
718.404	107.19
718.585	106.72
718.767	106.9
718.948	106.96
719.13	107
719.311	106.36
719.493	106.87
719.674	106.83
719.856	107.25
720.037	107.3
720.219	107.1
720.4	107.1
720.581	107.09
720.763	106.7
720.944	106.95
721.125	106.28
721.307	106.7
721.488	107.07
721.669	106.85
721.85	106.55
722.032	106.79
722.213	106.46
722.394	106.27
722.575	106.3
722.756	106.26
722.938	106.07
723.119	105.87
723.3	106.42
723.481	106.43
723.662	106.53
723.843	105.84
724.024	106.13
724.205	105.93
724.386	105.95
724.567	105.8
724.748	105.63
724.929	105.84
725.11	106
725.291	105.61
725.472	105.68
725.653	105.32
725.834	105.1
726.015	105.67
726.196	105.3
726.377	105.25
726.557	104.85
726.738	105.05
726.919	105.26
727.1	105.15
727.281	105.71
727.461	105.07
727.642	105.24
727.823	104.22
728.004	104.7
728.184	104.94
728.365	104.62
728.546	105.09
728.726	105.17
728.907	104.82
729.087	105.08
729.268	105.1
729.449	104.46
729.629	104.53
729.81	104.38
729.99	104.35
730.171	104.07
730.351	104.51
730.532	104.39
730.712	104.61
730.893	104.48
731.073	104.84
731.253	104.77
731.434	104.4
731.614	104.33
731.795	104.05
731.975	104.45
732.155	103.95
732.336	103.92
732.516	104.11
732.696	103.79
732.876	103.88
733.057	104.14
733.237	103.39
733.417	104.24
733.597	104.16
733.778	103.98
733.958	103.99
734.138	104.08
734.318	103.87
734.498	104.25
734.678	103.97
734.858	104.28
735.038	103.55
735.218	103.76
735.398	104.14
735.579	103.82
735.759	104.16
735.939	103.86
736.119	103.72
736.298	103.42
736.478	103.83
736.658	103.79
736.838	103.49
737.018	103.39
737.198	103.43
737.378	103.52
737.558	103.64
737.738	103.47
737.917	103.85
738.097	102.83
738.277	103.5
738.457	103.4
738.637	103.31
738.816	102.89
738.996	103.36
739.176	103.27
739.355	103.54
739.535	103.02
739.715	103.11
739.894	103.1
740.074	103.04
740.254	102.78
740.433	103.18
740.613	102.58
740.792	103.5
740.972	102.79
741.151	102.23
741.331	102.92
741.51	102.52
741.69	102.79
741.869	102.73
742.049	102.95
742.228	102.61
742.408	102.66
742.587	102.55
742.766	102.34
742.946	102.91
743.125	102.39
743.305	102.91
743.484	102.89
743.663	103.25
743.842	102.9
744.022	103.02
744.201	102.37
744.38	102.03
744.56	102.73
744.739	102.68
744.918	102.31
745.097	102.63
745.276	102.45
745.455	102.23
745.635	101.97
745.814	102.03
745.993	102.92
746.172	102.72
746.351	102.44
746.53	102.42
746.709	101.88
746.888	102.6
747.067	102.61
747.246	102.16
747.425	102.5
747.604	102.42
747.783	102.42
747.962	102.12
748.141	102.13
748.32	101.63
748.499	101.87
748.677	102.36
748.856	101.57
749.035	102.18
749.214	101.86
749.393	102.4
749.572	101.99
749.75	102.42
749.929	101.56
750.108	102
750.287	102.18
750.465	102.54
750.644	102.14
750.823	102.71
751.001	102.6
751.18	102.3
751.359	101.8
751.537	102.17
751.716	102.41
751.894	101.71
752.073	101.89
752.251	102.22
752.43	102.18
752.609	102.99
752.787	101.91
752.966	102.28
753.144	102.39
753.322	102.22
753.501	102.07
753.679	102.34
753.858	102.99
754.036	102.36
754.215	102.4
754.393	103.03
754.571	102.76
754.75	101.97
754.928	102.85
755.106	102.23
755.284	102.7
755.463	102.54
755.641	102.38
755.819	102.43
755.997	102.73
756.176	101.89
756.354	102.48
756.532	102.68
756.71	102.45
756.888	102.3
757.066	102.13
757.245	101.89
757.423	102.25
757.601	102.27
757.779	102.38
757.957	102.69
758.135	102.45
758.313	102.09
758.491	102.51
758.669	102.46
758.847	102.42
759.025	102.69
759.203	101.55
759.381	102.42
759.559	102.56
759.737	102.17
759.915	102.6
760.092	102.48
760.27	101.99
760.448	101.97
760.626	102.86
760.804	102.35
760.981	102.1
761.159	102.74
761.337	102.23
761.515	102.57
761.692	102.73
761.87	102.65
762.048	102.84
762.226	102.34
762.403	102.34
762.581	102.61
762.759	102.82
762.936	102.8
763.114	102.78
763.291	102.26
763.469	103.28
763.647	102.11
763.824	102.45
764.002	103
764.179	102.66
764.357	103.21
764.534	102.76
764.712	102.94
764.889	102.96
765.066	103.33
765.244	103.39
765.421	103.31
765.599	102.94
765.776	103.53
765.953	102.99
766.131	103.55
766.308	103.18
766.485	103.42
766.663	103.28
766.84	103.26
767.017	103.17
767.194	102.83
767.372	102.82
767.549	102.71
767.726	103.2
767.903	103.5
768.081	103.02
768.258	103.41
768.435	102.87
768.612	102.56
768.789	103.29
768.966	102.53
769.143	102.14
769.32	102.79
769.497	102.74
769.674	103.22
769.851	103.3
770.028	102.75
770.205	103.52
770.382	103.15
770.559	102.7
770.736	103.28
770.913	103.06
771.09	102.38
771.267	102.65
771.444	102.51
771.621	103.12
771.798	102.95
771.975	102.94
772.151	102.73
772.328	102.69
772.505	102.37
772.682	103.17
772.859	102.97
773.035	102.97
773.212	103.05
773.389	103.39
773.565	102.8
773.742	103.45
773.919	103.52
774.096	103.43
774.272	103.43
774.449	103.42
774.625	102.71
774.802	103.68
774.979	103.33
775.155	103.39
775.332	103.96
775.508	104.12
775.685	103.23
775.861	103.97
776.038	103.73
776.214	102.96
776.391	103.97
776.567	102.75
776.744	103.89
776.92	103.08
777.096	103.12
777.273	103.43
777.449	102.34
777.626	103.4
777.802	103.38
777.978	103.59
778.155	103.73
778.331	103.38
778.507	102.36
778.683	103.99
778.86	103.71
779.036	103.16
779.212	103.29
779.388	103.17
779.565	103.45
779.741	102.49
779.917	102.48
780.093	103.2
780.269	103.59
780.445	104.1
780.621	103.71
780.797	105.15
780.974	103.15
781.15	103.79
781.326	103.99
781.502	103.45
781.678	103.98
781.854	103.74
782.03	103.75
782.206	102.71
782.382	103.16
782.558	103.87
782.733	103.96
782.909	103.62
783.085	102.54
783.261	103.97
783.437	103.39
783.613	103.06
783.789	103.09
783.965	103.35
784.14	103.71
784.316	103.5
784.492	103.15
784.668	104.07
784.843	102.78
785.019	102.79
785.195	102.82
785.371	103.37
785.546	104.07
785.722	103.31
785.898	103.33
786.073	104.13
786.249	104.77
786.424	103.16
786.6	103.34
786.776	104.53
786.951	104.39
787.127	104.02
787.302	104.57
787.478	103.54
787.653	103.58
787.829	103.51
788.004	103.94
788.18	103.66
788.355	103.56
788.531	103.59
788.706	103.74
788.881	104.05
789.057	104.12
789.232	104.56
789.408	103.27
789.583	103.48
789.758	103.82
789.934	103.14
790.109	102.7
790.284	102.5
790.459	102.36
790.635	103.12
790.81	103.5
790.985	103.85
791.16	103.76
791.336	104.1
791.511	103.77
791.686	103.94
791.861	103.58
792.036	103.44
792.211	103.7
792.387	103.91
792.562	103.08
792.737	104.29
792.912	104.8
793.087	103.67
793.262	103
793.437	103.85
793.612	103.47
793.787	102.36
793.962	104.13
794.137	104.86
794.312	103.27
794.487	102.18
794.662	103
794.837	103.42
795.011	103.2
795.186	102.81
795.361	103.07
795.536	104.64
795.711	102.51
795.886	103.01
796.06	102.79
796.235	103.6
796.41	104.45
796.585	104.39
796.76	104.71
796.934	102.04
797.109	103.21
797.284	102.72
797.458	102.58
797.633	101.54
797.808	103.41
797.982	103.08
798.157	103.97
798.332	102.19
798.506	105.14
798.681	104.34
798.855	102.55
799.03	104.26
799.204	103.38
799.379	102.5
799.553	103.93
799.728	103.24
799.902	103.57
800.077	103.74
800.251	102.81
800.426	103.96
800.6	102.89
800.775	103.56
800.949	103.52
801.123	104.83
801.298	103.34
801.472	104.39
801.647	102.29
801.821	102.27
801.995	103.82
802.169	103.57
802.344	102.47
802.518	102.12
802.692	103.53
802.867	103.18
803.041	102.01
803.215	102.84
803.389	102.49
803.563	103.12
803.737	102.16
803.912	103.52
804.086	102.19
804.26	103.14
804.434	104.1
804.608	101.49
804.782	103.24
804.956	101.26
805.13	102.47
805.304	101.85
805.478	101.95
805.652	100.51
805.826	102.31
806	102.27
806.174	102.73
806.348	101.23
806.522	101.72
806.696	102.26
806.87	102.8
807.044	102.29
807.218	101.23
807.392	102.58
807.566	101.96
807.739	101.42
807.913	102.64
808.087	101.08
808.261	101.94
808.435	101
808.608	100.89
808.782	102.72
808.956	102.27
809.13	102.38
809.303	102.91
809.477	102.05
809.651	99.47
809.824	100.4
809.998	100.29
810.172	101.55
810.345	101.14
810.519	101.72
810.692	101.42
810.866	100.74
811.04	100.81
811.213	101.03
811.387	100.81
811.56	100.2
811.734	100.07
811.907	99.27
812.081	99.09
812.254	101.66
812.428	100.42
812.601	100.06
812.774	99.8
812.948	99.7
813.121	101.1
813.295	100.97
813.468	100.86
813.641	99.25
813.815	99.93
813.988	99.24
814.161	100.01
814.335	100.12
814.508	99.17
814.681	100.95
814.854	100.14
815.028	99.48
815.201	101.12
815.374	101.43
815.547	99.23
815.72	99.24
815.894	98.96
816.067	100.94
816.24	99.02
816.413	97.07
816.586	101.95
816.759	98.39
816.932	98.27
817.105	99.56
817.278	98.06
817.452	98.97
817.625	99.61
817.798	99.69
817.971	99.06
818.144	99.3
818.317	101.26
818.49	99.24
818.662	97.99
818.835	97.03
819.008	97.97
819.181	100.8
819.354	98.7
819.527	98.59
819.7	98.11
819.873	99.58
820.046	99.1
820.218	97.71
820.391	99.38
820.564	98.17
820.737	96.47
820.909	98.59
821.082	98.83
821.255	96.2
821.428	98.89
821.6	99.57
821.773	98.48
821.946	97.07
822.118	96.89
822.291	98.01
822.464	96.87
822.636	96.23
822.809	97.3
822.982	99.87
823.154	96.92
823.327	97.46
823.499	96.14
823.672	97.15
823.844	98.76
824.017	97.75
824.189	98.9
824.362	98.07
824.534	98.24
824.707	96.49
824.879	96.24
825.052	98.93
825.224	99.24
825.396	97.84
825.569	96.14
825.741	97.87
825.914	97.83
826.086	97.14
826.258	96.85
826.431	97.64
826.603	97.31
826.775	99.74
826.947	96.81
827.12	96.7
827.292	96.33
827.464	96.74
827.636	96.42
827.809	97.14
827.981	96.83
828.153	96.47
828.325	99.15
828.497	96.24
828.669	95.47
828.842	97.54
829.014	96.43
829.186	94.96
829.358	96.17
829.53	94.6
829.702	96.43
829.874	95.46
830.046	96.45
830.218	97.81
830.39	94.45
830.562	96.19
830.734	96.87
830.906	95.87
831.078	95.94
831.25	95.78
831.422	95.66
831.594	96.9
831.766	96.6
831.937	98.13
832.109	95.83
832.281	94.99
832.453	96.37
832.625	96.31
832.797	96.69
832.968	96.45
833.14	96.83
833.312	95.18
833.484	95.96
833.655	97.49
833.827	94.45
833.999	97.58
834.171	96.78
834.342	96.23
834.514	94.12
834.686	94.52
834.857	96.62
835.029	94.04
835.2	96.08
835.372	94.99
835.544	94.53
835.715	95.9
835.887	95.44
836.058	94.71
836.23	93.82
836.401	94.99
836.573	94.7
836.744	95.81
836.916	95.05
837.087	94.81
837.259	96.12
837.43	94.09
837.602	91.97
837.773	94.38
837.945	95.53
838.116	95.55
838.287	93.59
838.459	95.28
838.63	93.6
838.801	94.28
838.973	95.74
839.144	95.1
839.315	93.07
839.487	94.19
839.658	95.2
839.829	94.74
840	92.42
840.172	95.37
840.343	91.61
840.514	91.14
840.685	93.17
840.856	94.7
841.027	90.46
841.199	91.91
841.37	91.91
841.541	92.22
841.712	91.48
841.883	94.04
842.054	94.43
842.225	93.29
842.396	93.88
842.567	92.26
842.738	94.02
842.909	94.01
843.08	93
843.251	92.93
843.422	91.89
843.593	91.97
843.764	92.77
843.935	93.56
844.106	92.47
844.277	91.78
844.448	92.7
844.619	91.99
844.79	90.18
844.96	90.64
845.131	89.69
845.302	93.38
845.473	90.67
845.644	93.07
845.814	94.11
845.985	93.4
846.156	89.84
846.327	91.06
846.497	92.46
846.668	92.99
846.839	93.03
847.01	93.45
847.18	92.07
847.351	91.27
847.522	94.26
847.692	91.18
847.863	91.24
848.033	93.95
848.204	92.28
848.375	91.2
848.545	89.85
848.716	91.64
848.886	91.12
849.057	92.59
849.227	91.8
849.398	90.98
849.568	90.11
849.739	90.85
849.909	92.38
850.08	89.96
850.25	92.47
850.421	90.2
850.591	90.1
850.761	89.59
850.932	89.15
851.102	92.34
851.272	90.07
851.443	92.58
851.613	92.73
851.783	91.76
851.954	88.54
852.124	90.76
852.294	90.2
852.465	90.71
852.635	91.41
852.805	93.48
852.975	89.96
853.145	90.63
853.316	90.84
853.486	91.76
853.656	91.39
853.826	88.16
853.996	89.73
854.166	92.93
854.337	89.66
854.507	89.9
854.677	89.43
854.847	89.35
855.017	92.44
855.187	89.32
855.357	89.03
855.527	88.2
855.697	89.97
855.867	88.04
856.037	88.42
856.207	90.07
856.377	87.38
856.547	91.34
856.717	85.58
856.887	89.92
857.057	92.35
857.227	87.81
857.397	87.62
857.566	88.26
857.736	87.54
857.906	89.72
858.076	88.36
858.246	87.88
858.416	90.68
858.585	89.25
858.755	91.27
858.925	90.58
859.095	89.11
859.264	86.61
859.434	90.76
859.604	85.69
859.774	89
859.943	89.78
860.113	89.74
860.283	88.82
860.452	88.06
860.622	89.76
860.791	87.51
860.961	88.39
861.131	85.1
861.3	86.26
861.47	89.73
861.639	89.72
861.809	83.54
861.978	92.09
862.148	91.43
862.318	92.07
862.487	85.7
862.657	87.92
862.826	88.31
862.995	86.7
863.165	86.9
863.334	87.81
863.504	86.62
863.673	90.68
863.843	86.46
864.012	83.81
864.181	87.19
864.351	89.75
864.52	86.85
864.689	88.32
864.859	88.46
865.028	87.16
865.197	88.02
865.366	87.8
865.536	86.85
865.705	84.22
865.874	86.67
866.043	89.51
866.213	86.3
866.382	86.48
866.551	85.64
866.72	86.56
866.889	87.64
867.059	90.94
867.228	88.4
867.397	88.23
867.566	89.34
867.735	84.75
867.904	86.55
868.073	88.56
868.242	86.08
868.411	87.5
868.58	88.31
868.749	86.62
868.918	86.3
869.087	85.76
869.256	88.98
869.425	88.49
869.594	85.43
869.763	85.42
869.932	84.71
870.101	88.52
870.27	88.13
870.439	85.23
870.608	89.76
870.777	83.44
870.945	89.35
871.114	86.68
871.283	86.2
871.452	88.7
871.621	85.03
871.789	84.57
871.958	88.85
872.127	82.98
872.296	84.89
872.464	85.57
872.633	87.16
872.802	87.83
872.971	88.25
873.139	85.65
873.308	85.12
873.477	88.77
873.645	88.12
873.814	86.08
873.983	89.34
874.151	84.95
874.32	84.71
874.488	86.05
874.657	86.19
874.826	82.27
874.994	88.7
875.163	87.64
875.331	85.2
875.5	86.39
875.668	84.93
875.837	84.28
876.005	88.37
876.174	81.35
876.342	83.89
876.51	84.82
876.679	86.88
876.847	87.63
877.016	84.18
877.184	82.06
877.352	83.54
877.521	90.07
877.689	91.58
877.857	83.35
878.026	87.42
878.194	85.62
878.362	85.12
878.531	86.83
878.699	87.23
878.867	83.73
879.036	85.11
879.204	83.41
879.372	86.33
879.54	81.95
879.708	82.6
879.877	86.49
880.045	82.26
880.213	79.43
880.381	85.33
880.549	92.41
880.717	83.33
880.885	85.45
881.054	88.85
881.222	81
881.39	93.58
881.558	85.83
881.726	88.1
881.894	86.23
882.062	81.27
882.23	86.62
882.398	80.69
882.566	88.3
882.734	83.63
882.902	91.57
883.07	89.52
883.238	84.34
883.406	87.31
883.574	85.02
883.741	90.11
883.909	90.48
884.077	83.05
884.245	86.76
884.413	84.38
884.581	80.93
884.749	87.82
884.916	79.64
885.084	90.32
885.252	86.17
885.42	86.63
885.587	86.51
885.755	81.99
885.923	82.69
886.091	84.43
886.258	85.93
886.426	89.07
886.594	81.2
886.761	83.47
886.929	88.63
887.097	80.99
887.264	86.55
887.432	85.36
887.6	84.61
887.767	82.87
887.935	86.34
888.102	88.77
888.27	81.02
888.438	83.35
888.605	85.04
888.773	86.14
888.94	82.83
889.108	86.94
889.275	90.26
889.443	77.61
889.61	89.73
889.778	85.41
889.945	88.8
890.112	86.69
890.28	90.23
890.447	85.9
890.615	84.2
890.782	83.46
890.949	80.91
891.117	80.21
891.284	87.16
891.452	88.09
891.619	91.04
891.786	85.15
891.953	85.77
892.121	77.01
892.288	86.03
892.455	84.85
892.623	90.21
892.79	82.85
892.957	86.61
893.124	86.77
893.291	79.94
893.459	91.2
893.626	84.88
893.793	94.87
893.96	86.23
894.127	88.35
894.294	85.92
894.461	87.14
894.629	85.29
894.796	88.69
894.963	88.32
895.13	86.08
895.297	84.74
895.464	87.95
895.631	91.7
895.798	80.96
895.965	85.11
896.132	84.98
896.299	83.88
896.466	89.12
896.633	87.36
896.8	89.41
896.967	90.55
897.134	86.76
897.301	84.71
897.467	93.19
897.634	89.3
897.801	88.51
897.968	91.87
898.135	86.75
898.302	89.27
898.469	87.65
898.635	89.85
898.802	88.65
898.969	81.97
899.136	88.1
899.303	89.26
